Time (ms),FDI (muV),FDS (muV),EDC (muV),EI (muV),APB (muV),EPB (muV),BB (muV),TB (muV),AD (muV),PD (muV)
-499,-0.023672,-0.018674,0.030588,-0.0022532,0.22692,-0.0065368,0.0048863,-0.0022532,-0.024743,-0.022244
-498,-0.02617,-0.021887,0.013454,-0.0011822,-0.18217,-0.0058229,0.0052433,-0.0054659,-0.023315,-0.0086787
-497,-0.030454,-0.025813,-0.0072508,-0.0054659,-0.26463,-0.0093926,0.0048863,-0.0058229,-0.025456,-0.0086787
-496,-0.05687,-0.026884,-0.031168,-0.0058229,0.28939,-0.010464,0.0038154,-0.0029671,-0.022601,0.010598
-495,-0.067579,-0.030454,-0.060797,-0.0026101,0.38042,-0.010464,0.0066712,-0.0065368,-0.019745,0.032373
-494,-0.040449,-0.032953,-0.036166,0.00060264,0.25834,-0.0061799,0.010598,-0.0058229,-0.018317,0.020236
-493,0.00095961,-0.03688,-0.011891,0.0016736,0.041655,-0.0018962,0.0059572,-0.0051089,-0.018674,-0.0097496
-492,0.030588,-0.035095,-0.0072508,0.00095961,-0.02974,-0.004038,0.0034584,-0.004038,-0.020816,-0.050802
-491,0.0045293,-0.032239,0.00095961,-0.00082526,-0.024386,-0.010464,0.0027445,-0.0051089,-0.025099,-0.058655
-490,-0.015104,-0.031882,-0.0033241,-0.004038,0.0048863,-0.0097496,0.0031015,-0.0033241,-0.024386,-0.031525
-489,-0.01796,-0.022244,-0.0051089,-0.0015392,-0.004752,-0.0015392,0.0031015,-0.0068938,-0.020816,-0.027241
-488,-0.021173,-0.024029,-0.0076078,0.00095961,-0.025099,-0.010464,0.0038154,-0.0061799,-0.020102,-0.040806
-487,-0.024743,-0.024743,-0.0079647,0.0038154,-0.067579,-0.0086787,0.0027445,-0.0051089,-0.021887,-0.041877
-486,-0.022244,-0.023672,-0.004395,0.0027445,-0.12541,-0.0079647,0.0052433,-0.0076078,-0.023672,-0.035809
-485,-0.027598,-0.022958,0.00095961,-0.00082526,-0.092568,-0.0029671,0.0059572,-0.004038,-0.018674,-0.036166
-484,-0.026884,-0.019388,0.0016736,0.0031015,0.0052433,-0.0015392,0.0059572,-0.0022532,-0.021173,-0.046518
-483,-0.024743,-0.012248,-0.0033241,0.0034584,0.010598,-0.0036811,0.0041724,-0.004395,-0.024386,-0.036166
-482,-0.024743,-0.013676,-0.0061799,0.0038154,-0.06401,-0.013676,0.0045293,-0.0076078,-0.022601,-0.011891
-481,-0.032239,-0.014033,-0.0011822,0.0013166,-0.26677,-0.0054659,0.0048863,-0.004038,-0.020459,-0.012962
-480,-0.035095,-0.0090357,-0.0015392,0.0013166,-0.26106,-0.0022532,0.008813,0.00024566,-0.021173,-0.015818
-479,-0.020102,-0.013319,0.0013166,0.0031015,0.044153,0.00060264,0.0080991,-0.00011131,-0.015461,-0.019388
-478,-0.018317,-0.030811,0.017737,0.0080991,-0.22786,-0.00046829,0.0052433,-0.0068938,-0.020459,-0.019745
-477,-0.027241,-0.040092,0.016666,0.012026,-1.1417,-0.00082526,0.0013166,-0.0058229,-0.022244,-0.0093926
-476,-0.030097,-0.019745,-0.0018962,0.013811,-0.3835,0.0063142,0.0034584,-0.0061799,-0.025099,0.0048863
-475,-0.029026,-0.029383,-0.018317,0.010598,0.89054,0.0073851,0.0020305,-0.0058229,-0.027598,0.012383
-474,-0.027241,-0.019388,-0.021887,0.0070282,0.84449,0.0052433,0.0020305,-0.0026101,-0.022244,0.019165
-473,-0.027955,-0.0093926,-0.038308,0.0038154,0.44539,0.0070282,0.0031015,-0.0061799,-0.016889,0.0034584
-472,-0.031525,-0.010107,-0.018674,0.0059572,0.13839,0.0041724,0.0045293,-0.0061799,-0.02153,-0.019745
-471,-0.032953,-0.024743,0.00917,0.0073851,0.078066,0.0016736,0.00917,0.00095961,-0.019388,-0.034738
-470,-0.036166,-0.030097,0.0013166,0.0041724,-0.00011131,-0.0011822,0.009527,0.0016736,-0.013319,-0.057584
-469,-0.042234,-0.02153,-0.0065368,0.0077421,-0.012248,-0.00046829,0.0077421,0.00095961,-0.011891,-0.077218
-468,-0.036523,-0.032239,-0.015104,0.010241,-0.084357,0.0013166,0.010241,0.0020305,-0.010464,-0.063296
-467,-0.044019,-0.035452,-0.029026,0.010598,-0.19752,0.01274,0.0063142,-0.0026101,-0.013676,-0.045447
-466,-0.034738,-0.034024,-0.021887,0.010955,-0.39028,0.00917,0.0031015,0.0027445,-0.011178,-0.047946
-465,-0.016175,-0.033667,-0.0051089,0.0059572,-0.34209,-0.0054659,0.0034584,0.011669,-0.01796,-0.046518
-464,-0.0097496,-0.041163,-0.010107,0.0016736,0.14304,-0.0093926,0.0052433,0.0027445,-0.01796,-0.034738
-463,-0.018317,-0.040092,-0.011178,0.00024566,0.39185,-0.004752,0.0034584,-0.0015392,-0.020102,-0.02974
-462,-0.030811,-0.042948,-0.0058229,-0.0083217,0.35115,-0.0036811,0.0048863,0.0041724,-0.024386,-0.01796
-461,-0.029383,-0.048303,-0.0058229,-0.0079647,0.21943,-0.004752,0.00060264,-0.00046829,-0.026884,-0.014033
-460,-0.020102,-0.030811,-0.0061799,-0.0036811,0.081636,-0.004038,0.00095961,-0.0029671,-0.025099,-0.0011822
-459,-0.014747,-0.024029,-0.0090357,0.0045293,-0.024386,-0.0093926,0.0016736,-0.0018962,-0.024743,0.019522
-458,-0.028312,-0.02153,-0.004395,0.011312,-0.059726,-0.0036811,0.00095961,-0.0058229,-0.020459,0.038442
-457,-0.030454,-0.025099,-0.00046829,0.0038154,-0.091497,-0.004038,-0.00011131,-0.0054659,-0.019745,0.018094
-456,-0.034738,-0.030811,0.00024566,-0.00082526,-0.067222,-0.0076078,0.00024566,-0.004752,-0.020816,-0.011534
-455,-0.031525,-0.034024,0.00024566,-0.0011822,-0.18467,-0.0018962,0.0016736,-0.010107,-0.019388,-0.020459
-454,-0.042591,-0.034738,0.0034584,0.0016736,-0.46525,0.0070282,0.0038154,-0.012962,-0.01439,-0.020816
-453,-0.063296,-0.023315,0.015953,0.0045293,-0.11934,0.009527,0.0045293,-0.014033,-0.015818,-0.020459
-452,-0.043662,-0.018674,0.034515,0.00095961,0.25084,0.00095961,0.0038154,-0.010107,-0.013319,-0.012605
-451,-0.030454,-0.02617,0.017737,0.00024566,0.22728,-0.011534,0.0038154,-0.0061799,-0.012248,-0.012605
-450,-0.02617,-0.022244,-0.00011131,0.0070282,0.056291,0.00095961,0.0027445,-0.0015392,-0.010821,-0.015461
-449,-0.025456,-0.020102,-0.014747,0.0066712,-0.22572,-0.0029671,0.0041724,-0.004752,-0.010464,-0.010464
-448,-0.0533,-0.032953,-0.04152,0.0038154,-0.59947,-0.0061799,0.0031015,-0.0072508,-0.014033,-0.0015392
-447,-0.019745,-0.030097,-0.029026,0.0077421,-0.22572,0.0027445,0.0038154,-0.0051089,-0.015818,-0.00011131
-446,0.02809,-0.023672,-0.011178,0.0077421,0.38007,-0.0090357,0.0073851,-0.0036811,-0.013319,-0.0026101
-445,0.038442,-0.028312,-0.022244,0.0045293,0.38506,-0.011891,0.0066712,-0.0072508,-0.015104,-0.020459
-444,0.031302,-0.029383,-0.036523,-0.00011131,0.20229,0.0041724,0.0077421,-0.0093926,-0.018317,-0.035452
-443,0.0063142,-0.020816,-0.022601,-0.0065368,0.029161,0.010241,0.0063142,-0.0076078,-0.019745,-0.040449
-442,-0.0076078,-0.01439,-0.01439,-0.010821,0.0063142,0.0048863,0.0059572,-0.0036811,-0.021173,-0.037237
-441,-0.018674,-0.023315,-0.0079647,-0.012605,-0.040449,0.0023875,0.0070282,-0.0029671,-0.022958,-0.023672
-440,-0.02617,-0.027955,0.0045293,-0.0054659,-0.044733,0.0016736,0.0045293,-0.0018962,-0.026884,-0.020102
-439,-0.028312,-0.027598,0.014525,0.013811,-0.0015392,0.0031015,0.0073851,-0.0036811,-0.024743,-0.02153
-438,-0.027598,-0.031168,0.00917,0.020593,0.016309,0.0041724,0.0080991,-0.0022532,-0.027955,-0.017603
-437,-0.031882,-0.033667,0.0056003,0.011312,-0.020459,0.0013166,0.0056003,-0.0051089,-0.034024,-0.017246
-436,-0.033667,-0.031168,-0.0051089,-0.0029671,-0.03688,-0.0029671,0.0052433,-0.004395,-0.031168,-0.017246
-435,-0.040449,-0.025813,-0.023315,0.0073851,-0.056156,-0.0033241,0.0045293,-0.004752,-0.030811,-0.024029
-434,-0.039021,-0.026527,-0.01796,0.033087,-0.15896,-0.0026101,0.0031015,-0.0026101,-0.031882,-0.032596
-433,-0.032596,-0.026527,-0.004395,0.010955,-0.30854,-0.0015392,0.0038154,-0.0022532,-0.032596,-0.035095
-432,-0.026527,-0.025456,-0.0051089,0.012383,-0.25499,-0.0011822,0.0041724,-0.0022532,-0.032953,-0.024029
-431,-0.027955,-0.025099,-0.0065368,0.010241,-0.66194,-0.0029671,0.0045293,-0.0018962,-0.029026,-0.012248
-430,-0.034738,-0.020102,-0.0068938,0.0031015,-0.3196,-0.0061799,0.0052433,0.0023875,-0.027598,-0.017603
-429,-0.030811,-0.023315,-0.0072508,0.0034584,0.65529,0.0031015,0.0048863,0.0020305,-0.020816,-0.021173
-428,-0.029383,-0.03331,-0.0033241,-0.0011822,0.61495,0.0084561,0.0045293,-0.004038,-0.013319,-0.018317
-427,-0.027241,-0.025099,0.0048863,-0.0093926,0.32152,0.00095961,0.0034584,-0.004395,-0.014033,-0.012962
-426,-0.032596,-0.019745,0.00060264,-0.0018962,0.11698,-0.0068938,0.0077421,-0.004395,-0.014033,-0.011534
-425,-0.03331,-0.021173,-0.00046829,0.0056003,0.0063142,-0.0029671,0.0066712,-0.0072508,-0.015104,-0.015104
-424,-0.027598,-0.021887,0.0023875,0.0052433,-0.042948,-0.0065368,0.0066712,-0.0061799,-0.012248,-0.0079647
-423,-0.031882,-0.025099,0.0052433,0.0070282,-0.014747,-0.00011131,0.0045293,-0.0068938,-0.011891,-0.0018962
-422,-0.03688,-0.027241,-0.0086787,-0.00046829,0.023092,-0.0015392,0.0080991,-0.0036811,-0.011178,-0.0065368
-421,-0.041877,-0.023672,-0.010821,0.0023875,0.026305,-0.0058229,0.0070282,-0.0026101,-0.012962,-0.013319
-420,-0.039735,-0.030454,-0.0065368,0.0031015,0.0052433,-0.0029671,0.0041724,0.0023875,-0.016889,-0.020102
-419,-0.03688,-0.025456,-0.0036811,-0.0022532,-0.035095,-0.0036811,0.0056003,0.0023875,-0.015104,-0.025813
-418,-0.057227,-0.025099,-0.01439,0.0031015,-0.10863,-0.004752,0.0038154,-0.0015392,-0.019745,-0.019388
-417,-0.059726,-0.022244,-0.016175,0.00024566,-0.17467,-0.0033241,0.0059572,-0.0029671,-0.024743,-0.022601
-416,-0.025813,-0.022244,-0.0033241,-0.00082526,-0.16004,0.00095961,0.0059572,-0.00046829,-0.024386,-0.034024
-415,0.0084561,-0.021173,-0.020459,-0.0015392,-0.12791,-0.004752,0.0045293,-0.0026101,-0.02974,-0.04509
-414,0.02095,-0.021887,-0.029383,-0.0026101,-0.33674,-0.0058229,0.0070282,-0.0054659,-0.030097,-0.038308
-413,-0.0036811,-0.017603,-0.012248,-0.004752,-0.17931,-0.0054659,0.0027445,-0.004038,-0.025456,-0.024743
-412,-0.015461,-0.018317,-0.004752,-0.0022532,0.045581,-0.0097496,0.00095961,-0.0058229,-0.030097,-0.038308
-411,-0.018674,-0.024029,-0.010464,0.0031015,-0.064367,-0.011891,0.00095961,-0.0061799,-0.031168,-0.035809
-410,-0.020816,-0.027598,-0.013319,0.0070282,0.24549,-0.0051089,-0.00082526,-0.0058229,-0.027955,-0.02974
-409,-0.025456,-0.025813,-0.011891,0.0080991,0.23621,-0.0018962,0.0045293,-0.0029671,-0.029026,-0.015818
-408,-0.030454,-0.025813,-0.0058229,0.0041724,0.1359,-0.0015392,0.0048863,0.0016736,-0.025456,-0.0079647
-407,-0.030454,-0.037237,-0.004038,0.010241,0.099127,0.0031015,0.00060264,0.0027445,-0.022601,-0.0090357
-406,-0.023672,-0.037594,-0.0079647,0.008813,0.056648,0.0048863,0.00095961,0.00060264,-0.012248,-0.011178
-405,-0.012962,-0.03331,-0.0051089,0.0023875,0.090917,-0.0022532,0.0034584,-0.0065368,-0.0058229,0.009884
-404,-0.019031,-0.027598,-0.00011131,0.0013166,0.054863,-0.0076078,-0.0015392,-0.004395,-0.0083217,0.047009
-403,-0.032953,-0.023672,-0.00046829,0.0031015,-0.017246,-0.0079647,-0.0015392,-0.0061799,-0.0061799,0.049151
-402,-0.040092,-0.023672,0.00060264,-0.00046829,-0.067222,-0.0090357,0.0038154,-0.01439,-0.0079647,0.047009
-401,-0.030097,-0.017603,0.0031015,0.00060264,0.019522,-0.011891,0.0056003,-0.01796,-0.012248,-0.021173
-400,-0.024743,-0.010107,0.0048863,0.0013166,0.064501,-0.012962,0.0063142,-0.017246,-0.020816,-0.066865
-399,-0.023672,-0.020459,0.0066712,0.0020305,-0.00046829,-0.014747,0.0080991,-0.004752,-0.021173,-0.10113
-398,-0.024386,-0.028669,0.011312,0.0080991,-0.034381,-0.0036811,0.0080991,0.011312,-0.027598,-0.14326
-397,-0.03331,-0.026884,0.012026,0.0059572,-0.032596,0.012383,0.012026,0.018094,-0.02974,-0.16432
-396,-0.031525,-0.02617,0.0059572,0.0048863,-0.085785,0.023092,0.009527,0.008813,-0.022601,-0.14005
-395,-0.030097,-0.025456,-0.013676,0.0077421,-0.19359,0.019522,0.0034584,-0.00082526,-0.019031,-0.088284
-394,-0.030811,-0.029026,-0.022601,0.011312,-0.13326,0.0020305,0.0031015,-0.012248,-0.021173,-0.052943
-393,-0.027598,-0.023672,-0.021173,0.013097,0.0020305,0.0023875,0.0048863,-0.0061799,-0.024029,-0.034738
-392,-0.025099,-0.022244,-0.025099,0.0077421,0.064144,-0.00011131,0.0027445,-0.004752,-0.020816,-0.0083217
-391,-0.024743,-0.022244,-0.012248,0.0038154,0.017737,0.00095961,0.0048863,-0.004752,-0.021887,-0.00011131
-390,-0.022958,-0.025813,-0.010464,0.00024566,-0.098636,-0.0018962,0.0048863,-0.0051089,-0.022244,-0.0072508
-389,-0.023315,-0.027598,-0.0054659,-0.00082526,-0.11613,-0.0011822,0.0023875,-0.0072508,-0.015818,0.00095961
-388,-0.023672,-0.02974,-0.0065368,0.0020305,-0.56806,-0.0061799,0.0034584,-0.0090357,-0.015818,0.019879
-387,-0.027955,-0.031525,0.00917,0.0063142,-0.81365,0.0041724,0.0063142,-0.0083217,-0.014747,0.02095
-386,-0.021887,-0.028669,0.027019,0.0038154,0.27869,0.0034584,0.0073851,-0.004038,-0.0097496,0.0073851
-385,-0.019388,-0.024029,0.019879,0.0059572,0.77559,0.0020305,0.0056003,-0.0011822,-0.014747,-0.0015392
-384,-0.026527,-0.022601,0.01274,0.0077421,0.53999,0.0013166,0.0063142,-0.0079647,-0.019031,-0.0029671
-383,-0.024386,-0.030097,0.0031015,0.0077421,0.11591,-0.0051089,0.0045293,-0.0072508,-0.021887,-0.0079647
-382,-0.023315,-0.028312,-0.046161,0.0020305,-0.56306,-0.012605,0.0027445,-0.0090357,-0.020102,-0.019745
-381,-0.023672,-0.030811,-0.081501,-0.00082526,-0.66408,-0.011178,0.0023875,-0.0054659,-0.023672,-0.016532
-380,-0.021887,-0.034738,-0.02974,-0.0026101,0.4511,-0.0093926,0.0048863,-0.0086787,-0.028312,-0.013676
-379,-0.022601,-0.030811,-0.01796,-0.011891,0.70884,-0.0093926,0.0048863,-0.013676,-0.025456,-0.010464
-378,-0.023315,-0.023672,-0.015104,-0.010107,0.3947,-0.0076078,0.0052433,-0.010464,-0.020102,-0.011891
-377,-0.020816,-0.024029,-0.0086787,0.0059572,0.12197,-0.0072508,0.0073851,-0.0033241,-0.019031,-0.016175
-376,-0.02617,-0.030454,-0.0033241,0.016309,0.044867,0.00024566,0.0052433,-0.0029671,-0.020102,-0.011891
-375,-0.033667,-0.024029,-0.00046829,0.010598,-0.035095,0.0052433,0.0038154,-0.0054659,-0.019031,-0.0090357
-374,-0.031168,-0.020816,0.0027445,0.008813,-0.25213,0.0045293,0.0073851,-0.004752,-0.017246,-0.0061799
-373,-0.028669,-0.028669,0.0013166,0.0027445,-0.16646,0.00095961,0.0073851,-0.0018962,-0.016175,-0.0083217
-372,-0.032239,-0.020816,-0.004395,-0.0022532,0.092702,-0.0022532,0.0048863,-0.0022532,-0.015104,-0.004752
-371,-0.034738,-0.024743,-0.0076078,-0.00011131,0.10091,-0.004038,0.0041724,-0.0011822,-0.013676,-0.0079647
-370,-0.034381,-0.035809,-0.004752,0.0045293,0.021664,-0.004752,0.0066712,-0.0022532,-0.016889,-0.014033
-369,-0.031168,-0.033667,0.00060264,0.0066712,-0.081144,-0.004038,0.0073851,-0.0029671,-0.015818,-0.015104
-368,-0.025813,-0.03331,0.0016736,0.0063142,-0.086499,-0.00082526,0.0052433,-0.0058229,-0.019745,-0.012605
-367,-0.027955,-0.042234,0.00095961,0.0056003,-0.061868,-0.0033241,0.0052433,-0.004752,-0.018674,-0.013676
-366,-0.024743,-0.016889,0.0020305,0.0052433,-0.048303,-0.0079647,0.0052433,-0.0029671,-0.018674,-0.015818
-365,-0.028312,-0.0022532,0.00060264,0.0056003,-0.1404,-0.0036811,0.0080991,-0.004395,-0.022601,-0.020459
-364,-0.03331,-0.0033241,-0.0051089,0.0056003,-0.30425,-0.0022532,0.0063142,0.0013166,-0.024029,-0.025813
-363,-0.021887,-0.0072508,-0.0086787,0.00095961,-0.46953,0.0031015,0.0041724,0.00095961,-0.022958,-0.021887
-362,-0.01796,-0.02153,-0.0068938,-0.0011822,-0.039735,0.0041724,0.0070282,-0.0018962,-0.025099,-0.019031
-361,-0.017246,-0.032953,-0.004752,-0.00046829,0.27083,0.0031015,0.0045293,-0.00082526,-0.024029,-0.022601
-360,-0.016889,-0.016889,-0.0072508,0.0031015,0.098413,0.0013166,0.0048863,-0.0061799,-0.023315,-0.021173
-359,-0.02153,-0.011534,-0.0072508,0.013097,-0.12255,-0.0018962,0.0031015,-0.004752,-0.018674,-0.024743
-358,-0.020102,-0.025456,-0.0058229,0.013097,-0.027955,-0.010821,0.00095961,-0.0026101,-0.015104,-0.024743
-357,-0.012962,-0.029026,-0.0058229,0.014168,0.25263,-0.027598,0.0031015,-0.0015392,-0.017603,-0.023315
-356,-0.015818,-0.029383,-0.0026101,0.016309,0.18266,-0.030454,0.0031015,0.00024566,-0.014747,-0.017246
-355,-0.024743,-0.030811,0.00095961,0.01274,0.0363,-0.015461,0.00095961,-0.0029671,-0.016889,-0.0090357
-354,-0.02617,-0.030811,0.0084561,0.0023875,0.021664,-0.0011822,-0.00082526,-0.0022532,-0.016532,-0.0072508
-353,-0.029383,-0.02974,0.018808,-0.0029671,0.0052433,0.010955,-0.0011822,-0.0051089,-0.015104,-0.010107
-352,-0.030454,-0.027955,0.013454,-0.00046829,0.0052433,0.021307,0.00024566,-0.0015392,-0.015104,-0.013319
-351,-0.03331,-0.025456,0.0048863,-0.00082526,-0.029026,0.019879,0.0041724,-0.0036811,-0.011178,-0.020816
-350,-0.039021,-0.02617,-0.0036811,0.00024566,-0.042591,0.015953,0.0031015,-0.0033241,-0.014747,-0.031168
-349,-0.029026,-0.032596,-0.022244,-0.004752,-0.07579,0.0052433,0.0031015,-0.0036811,-0.016532,-0.04509
-348,-0.016532,-0.032953,-0.024386,-0.0090357,-0.044733,0.00060264,0.0038154,-0.0022532,-0.016889,-0.058298
-347,-0.016175,-0.029383,-0.0090357,-0.0054659,-0.011891,-0.004038,0.0045293,-0.0015392,-0.016889,-0.052586
-346,-0.022958,-0.031882,-0.0029671,-0.004752,-0.076504,-0.0058229,0.008813,-0.0011822,-0.015818,-0.040092
-345,-0.030454,-0.027241,-0.020816,-0.0022532,-0.37529,-0.0026101,0.0080991,-0.0054659,-0.017603,-0.034381
-344,-0.033667,-0.030097,-0.037594,0.0034584,-0.95395,-0.0090357,0.0048863,-0.0061799,-0.021173,-0.022244
-343,-0.03688,-0.030097,-0.038308,0.011312,-0.09578,-0.0093926,0.0084561,-0.0051089,-0.019745,-0.012605
-342,-0.02617,-0.027598,-0.034738,0.012383,0.67743,-0.0068938,0.0084561,-0.0065368,-0.016532,-0.013319
-341,-0.020102,-0.020459,-0.026884,0.0070282,0.43361,-0.0022532,0.0052433,-0.0076078,-0.014747,0.0073851
-340,-0.025099,-0.016889,-0.019388,0.0045293,0.19872,0.0041724,0.0038154,-0.0076078,-0.014033,0.030231
-339,-0.015818,-0.022958,-0.010107,0.0048863,0.12697,-0.0022532,0.0038154,-0.004395,-0.01439,0.033444
-338,-0.02153,-0.023672,-0.0097496,0.0027445,0.10163,0.0016736,0.0016736,-0.00046829,-0.016889,0.051293
-337,-0.028669,-0.025099,-0.0086787,0.0016736,0.030945,0.0056003,0.0052433,-0.00082526,-0.023315,0.053792
-336,-0.022244,-0.027598,-0.0051089,0.0034584,-0.092568,0.0027445,0.0084561,-0.0051089,-0.025099,0.039156
-335,-0.019031,-0.027241,-0.00082526,0.0031015,-0.30318,0.00024566,0.0052433,-0.0061799,-0.025813,-0.0083217
-334,-0.027955,-0.027598,-0.00011131,0.0027445,-0.43241,-0.0022532,0.0059572,-0.0072508,-0.021887,-0.071506
-333,-0.034381,-0.025456,0.0059572,0.0048863,0.019165,-0.0011822,0.0048863,-0.011891,-0.022601,-0.11399
-332,-0.040449,-0.028312,0.0073851,0.0059572,0.15839,-0.0054659,0.0038154,-0.0065368,-0.019388,-0.10506
-331,-0.042234,-0.023315,0.0063142,0.0077421,0.16731,-0.0086787,0.0048863,-0.0072508,-0.020459,-0.075433
-330,-0.039021,-0.01796,0.0016736,0.009527,0.22371,-0.0011822,0.0034584,-0.0051089,-0.022244,-0.067222
-329,-0.052943,-0.023315,0.0031015,0.0066712,0.17945,-0.00046829,0.0023875,-0.0033241,-0.02617,-0.086499
-328,-0.034024,-0.031525,0.008813,0.00095961,0.17873,-0.0022532,0.0031015,-0.0058229,-0.025813,-0.070792
-327,-0.01796,-0.026527,0.010955,-0.0029671,0.074496,0.0027445,0.0056003,-0.0051089,-0.022958,-0.075433
-326,-0.004752,-0.027955,0.014525,-0.0051089,0.011669,0.0023875,0.00095961,-0.00082526,-0.021173,-0.097922
-325,0.023092,-0.02153,0.011669,-0.0086787,-0.16503,0.00024566,0.008813,0.0038154,-0.022601,-0.085071
-324,0.0034584,-0.020816,-0.017603,-0.00011131,-0.839,-0.0058229,0.0084561,0.010241,-0.020816,-0.036523
-323,-0.025456,-0.021173,-0.055085,-0.004038,-0.4424,-0.0054659,0.0048863,0.0048863,-0.020102,-0.0011822
-322,-0.020459,-0.028312,-0.031525,-0.0033241,0.59211,0.0063142,0.0052433,0.00024566,-0.018674,0.022021
-321,-0.031525,-0.030454,-0.033667,-0.00046829,0.56712,0.0038154,0.0027445,-0.004752,-0.01796,0.029518
-320,-0.031882,-0.024386,-0.014033,0.0013166,0.24941,-0.004038,0.0059572,-0.0068938,-0.020459,0.030945
-319,-0.026884,-0.021887,-0.0026101,0.00095961,0.054863,-0.0083217,0.0038154,-0.0079647,-0.016175,0.010241
-318,-0.028312,-0.032953,-0.00011131,0.0038154,0.00095961,-0.0079647,0.0038154,-0.0061799,-0.017603,-0.011534
-317,-0.032239,-0.038308,0.0056003,0.0023875,-0.054014,-0.013676,0.0045293,-0.0079647,-0.02153,-0.016532
-316,-0.035452,-0.022958,0.0031015,-0.00046829,-0.12005,-0.036166,-0.0011822,-0.0061799,-0.019745,-0.021173
-315,-0.034381,-0.025813,0.0080991,0.0066712,-0.31746,-0.052229,-0.0015392,-0.0029671,-0.021173,-0.0086787
-314,-0.034738,-0.026884,0.0038154,0.0045293,-0.44811,-0.035095,0.00060264,-0.0065368,-0.025456,-0.00046829
-313,-0.028669,-0.021173,0.0020305,0.0080991,-0.025099,0.023449,0.0027445,-0.0093926,-0.024386,-0.0029671
-312,-0.035809,-0.019031,0.0016736,0.009527,0.20122,0.053792,0.0080991,-0.0018962,-0.025099,-0.011178
-311,-0.056156,-0.020459,-0.012962,0.0073851,0.15553,0.040227,0.0063142,0.0038154,-0.025813,-0.014747
-310,-0.059369,-0.030454,-0.017246,0.0016736,0.095201,0.022378,0.0048863,-0.0018962,-0.025099,-0.0051089
-309,-0.04509,-0.030097,-0.004395,0.0023875,-0.050445,0.012026,0.0080991,-0.004752,-0.025099,-0.0093926
-308,-0.024029,-0.027955,-0.0058229,0.0059572,-0.18038,0.0070282,0.0077421,-0.00082526,-0.027598,-0.014033
-307,0.012026,-0.026884,0.008813,0.008813,-0.041877,0.009884,0.0070282,-0.00011131,-0.026527,-0.012605
-306,0.027376,-0.026527,0.01738,0.0052433,0.16231,0.0034584,0.0059572,-0.004752,-0.023672,-0.010464
-305,-0.0090357,-0.023672,-0.0015392,0.0034584,0.057361,0.0048863,0.0023875,-0.010464,-0.02153,0.010241
-304,-0.028312,-0.020459,-0.0083217,0.0041724,-0.094352,0.0077421,0.0020305,-0.0068938,-0.015104,0.0041724
-303,-0.032239,-0.021173,-0.0090357,0.0045293,-0.079716,0.0052433,0.0077421,-0.0061799,-0.010821,-0.01439
-302,-0.029026,-0.020816,-0.023672,0.0031015,-0.032596,0.0027445,0.012026,-0.004038,-0.0083217,-0.029026
-301,-0.004752,-0.022601,-0.029383,0.0013166,-0.20037,-0.0029671,0.010241,0.0016736,-0.013676,-0.037594
-300,-0.0054659,-0.026884,-0.012962,0.00060264,-0.37636,-0.00046829,0.0073851,0.0031015,-0.015818,-0.037951
-299,-0.018317,-0.026527,-0.012248,0.0041724,0.10413,0.0034584,0.0077421,0.00095961,-0.012962,-0.035095
-298,-0.027241,-0.026527,-0.012962,0.0052433,0.33901,-0.00082526,0.0056003,-0.0011822,-0.012605,-0.029026
-297,-0.031168,-0.024029,-0.0054659,0.0056003,0.21229,-0.0033241,0.0041724,-0.0036811,-0.017603,-0.026527
-296,-0.02153,-0.023315,-0.0051089,0.00095961,0.066286,-0.0090357,0.0048863,-0.0029671,-0.018674,-0.026884
-295,-0.021173,-0.021887,-0.004395,0.0023875,0.015239,-0.0093926,0.0023875,-0.0022532,-0.019031,-0.019388
-294,-0.022244,-0.029026,-0.0065368,0.0034584,0.019165,-0.0083217,0.0077421,-0.0051089,-0.020102,-0.018674
-293,-0.024029,-0.025099,-0.0076078,0.0038154,-0.015104,-0.013676,0.0066712,-0.010464,-0.019388,-0.016532
-292,-0.02974,-0.028312,-0.0054659,0.010241,-0.02617,-0.0083217,0.0020305,-0.015104,-0.024743,-0.019031
-291,-0.066151,-0.040092,-0.0022532,0.0056003,-0.019388,-0.0022532,0.0020305,-0.014747,-0.024029,-0.019745
-290,-0.1222,-0.025813,0.0023875,0.0056003,-0.042591,-0.00046829,0.0016736,-0.011534,-0.02974,-0.019745
-289,-0.11756,-0.016889,0.0066712,0.0084561,-0.037237,-0.0026101,0.00095961,-0.0058229,-0.036166,-0.017603
-288,-0.0533,-0.019031,0.013454,0.0038154,-0.050445,-0.0015392,0.0016736,-0.0022532,-0.032596,-0.020102
-287,0.037371,-0.019745,0.0059572,0.0045293,-0.015461,-0.00046829,0.0027445,-0.0051089,-0.030454,-0.023315
-286,0.056291,-0.025813,0.0048863,0.0080991,-0.02617,-0.00082526,0.0045293,-0.0018962,-0.023672,-0.022958
-285,0.018451,-0.031168,0.00917,0.009884,-0.090069,-0.0036811,0.0041724,-0.0015392,-0.018674,-0.020816
-284,-0.034381,-0.022244,-0.0072508,0.0073851,-0.12719,-0.0036811,0.0031015,-0.0026101,-0.020459,-0.023672
-283,-0.0033241,-0.01439,-0.01439,0.0027445,-0.056513,-0.0026101,0.0063142,-0.0036811,-0.019031,-0.023672
-282,0.0056003,-0.025099,0.0073851,0.0034584,-0.032239,-0.0061799,0.0041724,-0.004752,-0.011534,-0.022244
-281,0.00095961,-0.032239,-0.0018962,0.0034584,-0.055085,-0.011178,0.0038154,-0.004395,-0.0076078,-0.022244
-280,0.014168,-0.032596,-0.018317,0.0041724,0.020236,-0.011534,0.0013166,-0.004395,-0.0097496,-0.021173
-279,-0.0011822,-0.02974,-0.029026,0.0023875,0.045938,-0.011178,0.0027445,-0.0029671,-0.010107,-0.016532
-278,-0.034738,-0.025099,-0.042234,-0.00046829,-0.066508,-0.0054659,0.0020305,-0.0022532,-0.010464,-0.015461
-277,-0.049017,-0.024029,-0.04152,-0.0093926,-0.34209,-0.0022532,-0.00046829,-0.0033241,-0.0086787,-0.020102
-276,-0.040449,-0.014033,-0.031168,-0.012962,-0.59769,-0.0054659,-0.00046829,-0.0029671,-0.010464,-0.019388
-275,0.0013166,-0.010821,-0.015461,-0.012248,-0.62339,-0.0068938,0.0031015,-0.0015392,-0.010821,-0.015104
-274,0.0080991,-0.020816,-0.0090357,-0.0076078,-0.31211,-0.011891,0.0038154,0.00095961,-0.010107,-0.016889
-273,-0.036523,-0.033667,-0.0051089,0.0080991,0.3001,-0.0076078,0.0063142,0.0016736,-0.011534,-0.017603
-272,-0.084714,-0.032239,-0.0093926,0.015596,0.2819,-0.00082526,0.0056003,-0.004038,-0.01439,-0.019388
-271,-0.062582,-0.027598,-0.0036811,0.00917,0.25013,0.0023875,0.0077421,-0.0015392,-0.015104,-0.019388
-270,-0.0093926,-0.023315,0.0070282,0.0063142,0.34651,0.00095961,0.0052433,-0.0029671,-0.01796,-0.014747
-269,0.00095961,-0.020816,0.0052433,0.00917,0.69527,0.00095961,0.0031015,-0.004752,-0.023315,0.0013166
-268,-0.025099,-0.016889,-0.0026101,0.0073851,0.58818,-0.0011822,0.0041724,-0.0022532,-0.029026,0.014882
-267,-0.06865,-0.022601,-0.00082526,0.0063142,0.28154,-0.0022532,0.0031015,-0.0022532,-0.027598,0.0080991
-266,-0.042948,-0.018317,-0.016532,0.0070282,0.13875,-0.0018962,0.00095961,-0.0026101,-0.022601,-0.012962
-265,-0.010107,-0.027955,-0.029383,0.0038154,0.05522,-0.0083217,0.0031015,-0.0058229,-0.020459,-0.026527
-264,0.008813,-0.030454,0.0016736,0.0077421,0.04808,-0.0090357,0.0020305,-0.0072508,-0.021173,-0.022244
-263,0.009884,-0.03688,0.0016736,0.0073851,0.011312,-0.0026101,0.0052433,-0.0068938,-0.021887,-0.018674
-262,-0.010821,-0.028669,-0.004038,0.0023875,-0.075433,-0.0036811,0.0063142,-0.004752,-0.019388,-0.030097
-261,-0.028669,-0.039735,-0.0033241,0.0027445,-0.046161,0.00024566,0.0023875,-0.0054659,-0.020459,-0.038664
-260,-0.017246,-0.043662,-0.0061799,0.0023875,-0.042591,-0.0058229,0.0080991,-0.0033241,-0.025099,-0.034738
-259,-0.032239,-0.035452,-0.004395,0.0056003,-0.034738,-0.0093926,0.00917,-0.0036811,-0.026884,0.00095961
-258,-0.037594,-0.030097,-0.0026101,0.0059572,-0.10756,0.0038154,0.0073851,0.0027445,-0.024386,0.035229
-257,-0.044019,-0.031168,0.0034584,0.0027445,-0.23571,0.0048863,0.0052433,0.00060264,-0.02153,0.030588
-256,-0.05687,-0.032596,0.009884,0.0041724,-0.25749,0.0073851,0.0070282,0.00060264,-0.019031,0.0020305
-255,-0.096851,-0.024743,0.008813,0.0059572,-0.16789,0.0073851,0.00917,-0.0015392,-0.018317,-0.08757
-254,-0.10542,-0.02617,0.0077421,0.0080991,-0.052943,0.00024566,0.00917,-0.0097496,-0.021173,-0.13969
-253,-0.0533,-0.019745,0.00060264,0.011669,0.055934,-0.00046829,0.0080991,-0.0097496,-0.019745,-0.13576
-252,-0.0029671,-0.01796,-0.015818,0.0073851,0.062359,0.00024566,0.0070282,-0.0083217,-0.018317,-0.096851
-251,0.030945,-0.021173,-0.021887,0.0048863,-0.030811,-0.00082526,0.0073851,-0.013319,-0.024386,-0.072577
-250,0.013097,-0.025456,-0.004752,0.0023875,-0.040806,-0.0015392,0.0041724,-0.0072508,-0.026884,-0.022601
-249,-0.0011822,-0.026884,-0.0022532,0.0020305,-0.074005,0.00095961,0.0031015,-0.0015392,-0.030454,0.009527
-248,-0.013676,-0.026884,-0.0022532,0.0027445,-0.13219,-0.0018962,0.0038154,0.00024566,-0.027241,0.00095961
-247,-0.060083,-0.025456,-0.0054659,0.0038154,-0.14397,-0.0022532,0.0045293,0.00095961,-0.029026,-0.0058229
-246,-0.070792,-0.026884,-0.00046829,0.0034584,-0.061154,-0.00011131,0.0045293,0.0066712,-0.024386,-0.014033
-245,-0.028312,-0.029383,0.00024566,0.0048863,-0.0072508,-0.00082526,0.0020305,0.022378,-0.020459,-0.016532
-244,0.0059572,-0.025456,-0.0079647,0.0023875,0.015596,-0.0022532,0.00060264,0.0066712,-0.018317,-0.011891
-243,0.022735,-0.027241,-0.014747,0.0031015,-0.090783,-0.00082526,0.00060264,-0.012248,-0.018317,0.013454
-242,0.014882,-0.018317,-0.012248,0.0041724,-0.42705,-0.004038,0.0023875,-0.015461,-0.016175,0.039513
-241,-0.015461,-0.018674,-0.023672,0.0023875,-0.30318,-0.0054659,0.0066712,-0.018317,-0.011891,0.055577
-240,-0.026884,-0.021173,-0.016889,0.0031015,0.27155,-0.0054659,0.0070282,-0.019031,-0.012248,0.035229
-239,-0.039021,-0.014033,-0.0011822,0.00060264,0.32081,-0.0036811,0.0070282,-0.0090357,-0.014033,-0.035809
-238,-0.047589,-0.015461,-0.00046829,-0.00082526,0.21157,-0.004752,0.011669,0.0020305,-0.0079647,-0.068293
-237,-0.037951,-0.018317,0.0031015,0.00095961,0.045224,-0.0033241,0.009884,0.0031015,-0.014747,-0.059012
-236,-0.025099,-0.03331,-0.00082526,-0.0022532,-0.0076078,-0.00011131,0.00917,-0.004038,-0.016889,-0.03331
-235,-0.040449,-0.031882,-0.020459,-0.0011822,-0.027598,0.00060264,0.0066712,-0.0054659,-0.017246,-0.015818
-234,-0.034381,-0.035095,-0.015461,0.0020305,-0.065795,-0.004752,0.0034584,-0.0011822,-0.01796,-0.023315
-233,-0.010821,-0.028312,-0.00011131,0.0034584,0.0038154,-0.0083217,0.0052433,-0.0022532,-0.019031,-0.027955
-232,-0.026527,-0.019745,0.0084561,0.0041724,-0.039021,-0.0054659,0.0070282,-0.0036811,-0.020459,-0.029383
-231,-0.033667,-0.024386,0.021664,0.0048863,-0.5702,0.0034584,0.0073851,-0.0015392,-0.020102,-0.019388
-230,-0.065081,-0.020816,0.015596,0.0073851,-1.5226,0.009884,0.009527,0.01274,-0.019745,-0.0058229
-229,-0.14647,-0.027241,-0.0090357,-0.0026101,-0.68729,0.0034584,0.009527,0.022378,-0.02153,-0.011891
-228,-0.17931,-0.039021,-0.030811,-0.0015392,0.45789,0.0038154,0.0063142,-0.00082526,-0.024743,-0.015818
-227,-0.095066,-0.034024,-0.032953,0.0048863,0.7813,0.0038154,0.0059572,-0.0097496,-0.027241,-0.019745
-226,0.078066,-0.023315,-0.029026,0.0066712,0.90982,-0.01439,0.0052433,-0.015818,-0.025099,-0.032953
-225,0.17909,-0.026884,-0.030454,0.0045293,0.57926,-0.033667,0.0041724,-0.017246,-0.025099,-0.034738
-224,0.11019,-0.020102,-0.0015392,0.0041724,0.030231,-0.038308,0.0059572,-0.013319,-0.025099,-0.031168
-223,-0.019031,-0.023315,0.0080991,0.0052433,0.20908,-0.016532,0.0045293,-0.0079647,-0.023315,-0.027955
-222,-0.018674,-0.031168,0.0063142,0.0027445,0.44753,0.025948,-0.00011131,-0.0065368,-0.022601,-0.018317
-221,-0.0015392,-0.035095,0.015239,0.00024566,0.34258,0.047009,-0.0015392,-0.004395,-0.025456,-0.01439
-220,-0.018317,-0.041163,0.011312,0.0020305,0.20408,0.042369,-0.0022532,-0.0051089,-0.016889,-0.0086787
-219,-0.044376,-0.041163,-0.0076078,-0.0026101,0.038442,0.014882,-0.0033241,-0.0068938,-0.014747,-0.0076078
-218,-0.047589,-0.039021,-0.0068938,0.0059572,0.076638,-0.0011822,-0.0026101,-0.00011131,-0.020102,-0.01439
-217,-0.03688,-0.023672,-0.024386,0.0070282,0.022021,-0.012248,0.00095961,-0.0011822,-0.019745,-0.018674
-216,-0.06044,-0.018674,-0.044019,0.0020305,-0.1122,-0.023315,-0.00011131,-0.0036811,-0.020102,-0.01796
-215,-0.057584,-0.017246,-0.037237,0.0056003,-0.25463,-0.022601,-0.00046829,-0.0018962,-0.020816,-0.021173
-214,-0.011891,-0.01439,-0.024029,0.0077421,-0.25856,-0.0093926,0.0056003,-0.0018962,-0.022958,-0.018317
-213,0.0020305,-0.021173,-0.020102,0.0052433,-0.0036811,-0.0022532,0.0034584,-0.0058229,-0.021887,-0.016532
-212,0.0031015,-0.029026,-0.004752,0.0027445,0.072354,-0.0093926,-0.0029671,-0.0065368,-0.014033,-0.01439
-211,-0.0090357,-0.02617,-0.00082526,0.0023875,-0.075076,-0.0068938,-0.0015392,-0.0029671,-0.015104,-0.018317
-210,-0.021173,-0.018317,-0.004752,0.0031015,-0.063296,-0.0011822,0.0013166,-0.0015392,-0.016532,-0.019745
-209,0.0023875,-0.019388,-0.0054659,0.0041724,-0.086856,0.011312,0.0059572,0.00095961,-0.021173,-0.015818
-208,-0.019031,-0.036523,-0.0058229,0.0070282,-0.26106,0.021307,0.0038154,-0.004752,-0.028669,-0.018674
-207,-0.036166,-0.036523,0.015953,0.0041724,-0.5445,0.0052433,0.00060264,-0.0029671,-0.027598,-0.01796
-206,-0.03331,-0.011534,0.03987,0.0059572,-0.14254,-0.0058229,0.0020305,0.00024566,-0.02153,-0.014747
-205,-0.042591,-0.011534,0.02809,0.0059572,0.26619,-0.0051089,0.0023875,-0.0033241,-0.010464,-0.015104
-204,-0.070078,-0.015461,-0.0068938,0.0031015,0.15267,-0.0054659,0.0056003,-0.0026101,-0.0051089,-0.017603
-203,-0.069364,-0.012248,-0.027955,0.00060264,0.029161,-0.00046829,0.0048863,-0.0033241,-0.0051089,-0.019031
-202,-0.049374,-0.019745,-0.037951,-0.00011131,-0.052943,-0.0033241,0.0063142,-0.0051089,-0.0076078,-0.020816
-201,-0.01439,-0.028312,-0.022601,0.0056003,-0.040806,-0.00082526,0.0056003,-0.004038,-0.011891,-0.020816
-200,0.013811,-0.024743,0.0031015,0.0016736,-0.040449,0.0073851,0.0063142,-0.0033241,-0.025099,-0.020102
-199,-0.0018962,-0.026884,0.0066712,-0.00046829,-0.11577,0.0041724,0.0048863,-0.0026101,-0.04866,-0.021887
-198,-0.03331,-0.031882,0.0084561,0.0027445,-0.1993,0.0016736,0.0059572,-0.0026101,-0.036166,-0.022244
-197,-0.040449,-0.023315,0.0077421,0.0031015,-0.23821,0.0013166,0.0052433,-0.0058229,-0.012605,-0.027241
-196,-0.042591,-0.040449,0.008813,0.0013166,-0.32067,0.00024566,0.0041724,-0.0011822,-0.0083217,-0.02974
-195,-0.039378,-0.032596,0.0020305,-0.0026101,-0.54842,-0.0061799,0.0041724,0.0013166,-0.012605,-0.027598
-194,-0.031168,-0.0076078,-0.0015392,-0.016532,-0.89112,-0.014033,0.0041724,0.00060264,-0.011178,-0.026527
-193,-0.014033,-0.0054659,0.0013166,-0.011534,0.030231,-0.017603,0.010598,-0.00082526,-0.010107,-0.021887
-192,-0.020816,-0.011891,-0.00011131,-0.004752,1.1418,-0.011891,0.012383,-0.004395,-0.011178,-0.024029
-191,-0.057941,-0.031525,-0.0090357,-0.00046829,0.84199,-0.0022532,0.011669,-0.0054659,-0.013319,-0.023315
-190,-0.088998,-0.031168,-0.0093926,0.0023875,0.4047,0.0041724,0.011312,-0.0086787,-0.019388,-0.022601
-189,-0.044733,-0.037951,-0.02974,0.0063142,0.14732,0.012383,0.010241,-0.0065368,-0.019388,-0.021887
-188,-0.029026,-0.033667,-0.042948,0.0056003,0.077709,0.012026,0.0084561,-0.004395,-0.020816,-0.024743
-187,-0.094352,-0.028312,-0.032953,0.0020305,-0.0051089,0.0023875,0.0070282,-0.0036811,-0.019745,-0.031168
-186,-0.2043,-0.026527,-0.016175,0.00095961,-0.13112,-0.0054659,0.0066712,-0.0061799,-0.019388,-0.026527
-185,-0.19002,-0.031168,-0.0051089,0.0048863,-0.42384,-0.024386,0.0059572,-0.0097496,-0.025456,-0.014033
-184,-0.046518,-0.02617,0.0041724,0.014168,-0.56056,-0.052943,0.0063142,-0.0083217,-0.026884,-0.0065368
-183,0.21193,-0.025813,0.0041724,0.020236,-0.078289,-0.062225,0.0084561,-0.0068938,-0.023672,-0.013676
-182,0.29082,-0.031525,0.0038154,0.021664,0.19194,-0.023672,0.0077421,-0.0054659,-0.019388,-0.020459
-181,0.015239,-0.028312,0.0031015,0.013454,-0.00046829,0.031659,0.0023875,-0.0054659,-0.023315,-0.023315
-180,-0.13076,-0.02153,-0.00082526,0.0048863,0.11769,0.047009,0.00095961,-0.0079647,-0.022244,-0.023315
-179,-0.0533,-0.015461,-0.0068938,0.0027445,0.31867,0.035586,0.0016736,-0.0083217,-0.023672,-0.019388
-178,0.025234,-0.026527,-0.010821,0.0034584,0.17945,0.026305,0.0056003,-0.0058229,-0.021173,-0.0011822
-177,0.079851,-0.04509,-0.012605,0.0077421,0.16374,0.017023,0.0052433,-0.004752,-0.017603,0.018094
-176,0.027019,-0.050802,-0.012962,0.012383,0.12554,0.009884,0.0056003,-0.0029671,-0.018317,-0.0058229
-175,-0.036166,-0.044376,-0.004395,0.013454,-0.065795,0.0048863,0.0041724,-0.00046829,-0.024029,-0.02974
-174,-0.0533,-0.033667,0.0059572,0.011312,-0.41599,-0.0026101,0.0016736,0.0056003,-0.025813,-0.033667
-173,-0.089712,-0.02153,0.0084561,0.011312,-0.51451,-0.0033241,0.0045293,0.0016736,-0.022244,-0.023672
-172,-0.1172,-0.025456,0.0020305,0.010241,-0.10006,-0.00046829,0.0041724,-0.0022532,-0.024743,0.00060264
-171,-0.062225,-0.021887,-0.0036811,0.00060264,0.17195,-0.004395,-0.00082526,-0.00011131,-0.027241,0.02095
-170,0.10769,-0.012962,-0.023672,-0.00082526,0.25405,-0.0086787,0.00060264,-0.00046829,-0.02617,-0.004395
-169,0.19587,-0.026527,-0.031525,-0.0011822,0.19587,-0.0026101,-0.0018962,-0.0022532,-0.024029,-0.057227
-168,0.10091,-0.03331,-0.00082526,-0.0026101,0.18623,-0.0011822,0.0045293,-0.0051089,-0.02153,-0.092568
-167,-0.015104,-0.025456,0.0070282,-0.0022532,0.14696,-0.0029671,0.0077421,-0.0061799,-0.018317,-0.096137
-166,-0.041163,-0.025099,0.0066712,0.0048863,0.076995,-0.004038,0.0056003,-0.010107,-0.016532,-0.095066
-165,-0.04866,-0.024386,-0.0093926,0.0013166,-0.050088,-0.0018962,0.0063142,-0.0086787,-0.016532,-0.088998
-164,-0.05687,-0.022601,-0.015104,-0.0036811,-0.11791,-0.0036811,0.0034584,-0.004752,-0.016532,-0.049017
-163,-0.048303,-0.025456,-0.012248,-0.0011822,-0.077575,-0.025456,0.0041724,-0.00046829,-0.01796,-0.004038
-162,-0.042591,-0.023672,-0.018674,0.008813,-0.52308,-0.022601,0.0059572,0.00095961,-0.024029,0.009884
-161,-0.05687,-0.019031,-0.02153,0.012026,-1.4976,-0.016889,0.0056003,0.0048863,-0.020459,0.0080991
-160,-0.051873,-0.014747,-0.019745,0.0073851,-0.34174,-0.0076078,0.00917,0.0023875,-0.017603,0.0027445
-159,-0.050445,-0.010821,-0.016175,0.0045293,0.97514,0.00024566,0.00917,-0.0026101,-0.019031,-0.0068938
-158,-0.084,-0.0086787,-0.0033241,0.0016736,0.80665,-0.00046829,0.009884,-0.0086787,-0.018674,-0.019031
-157,-0.097208,-0.022601,-0.0033241,0.0031015,0.46003,-0.00046829,0.0077421,-0.0058229,-0.015104,-0.029383
-156,-0.12398,-0.031168,-0.0033241,0.0077421,0.23549,0.0045293,0.009884,-0.0033241,-0.018674,-0.042234
-155,-0.13398,-0.023672,-0.0026101,0.01738,0.14553,0.008813,0.00917,0.0020305,-0.017603,-0.029383
-154,-0.053657,-0.020816,-0.004395,0.015953,0.068071,0.0041724,0.0048863,0.00060264,-0.012605,-0.0090357
-153,0.065215,-0.025099,0.0066712,0.009884,0.015596,-0.00046829,0.0048863,-0.00046829,-0.021887,-0.019745
-152,0.10413,-0.028312,0.010955,0.0027445,-0.010821,-0.0011822,0.0059572,-0.00046829,-0.020102,-0.04152
-151,0.044867,-0.024029,0.0041724,-0.0058229,-0.043662,-0.004752,0.0045293,-0.00046829,-0.015461,-0.047232
-150,-0.025813,-0.025456,0.0016736,-0.0097496,-0.081144,-0.010464,0.0038154,-0.0026101,-0.020816,-0.044376
-149,-0.018317,-0.026527,-0.019388,-0.010107,-0.077218,-0.015461,0.0073851,-0.0065368,-0.020816,-0.039735
-148,-0.03331,-0.022244,-0.027241,-0.0076078,-0.081501,-0.016175,0.0034584,-0.0076078,-0.021887,-0.02617
-147,-0.039378,-0.022244,-0.0029671,-0.00046829,-0.10399,-0.0093926,0.0013166,-0.0022532,-0.020816,-0.010464
-146,-0.044733,-0.025813,-0.0076078,0.0031015,-0.14005,-0.0026101,0.0020305,-0.004395,-0.018317,-0.00011131
-145,-0.046875,-0.029026,-0.0083217,-0.0018962,-0.1836,-0.0061799,0.0056003,-0.004752,-0.021887,0.0027445
-144,-0.047589,-0.029383,-0.0061799,0.0038154,-0.17396,-0.0065368,0.0034584,-0.0054659,-0.01796,0.0041724
-143,-0.046161,-0.027598,-0.0051089,0.0073851,-0.055085,-0.00082526,0.0023875,-0.0054659,-0.013319,0.00060264
-142,-0.034738,-0.020459,-0.0033241,-0.00082526,-0.00082526,0.00024566,0.0020305,-0.004752,-0.0097496,-0.0018962
-141,-0.045804,-0.012248,-0.0065368,-0.004395,-0.069364,0.015239,-0.00046829,-0.004395,-0.011534,-0.004752
-140,-0.045804,-0.011178,-0.0083217,-0.0093926,-0.1454,0.025948,-0.0015392,-0.004395,-0.015104,-0.0065368
-139,-0.032953,-0.012605,-0.0036811,-0.004752,-0.12505,0.034872,-0.00011131,-0.004038,-0.015461,-0.004395
-138,-0.025099,-0.019031,0.00024566,-0.0011822,-0.090069,0.018451,0.00095961,-0.0058229,-0.02153,-0.0072508
-137,-0.028669,-0.025099,0.00024566,0.0031015,-0.12327,-0.012605,0.0023875,-0.0051089,-0.027241,-0.010107
-136,-0.030097,-0.028669,0.00095961,0.0034584,-0.025099,-0.043662,0.0023875,0.00060264,-0.029026,-0.011891
-135,-0.020459,-0.031882,0.0013166,0.0070282,0.17088,-0.069364,0.0038154,-0.0068938,-0.022958,-0.011178
-134,-0.030454,-0.027241,-0.00046829,0.0070282,0.12876,-0.062225,0.0031015,-0.0093926,-0.022601,-0.010107
-133,-0.034738,-0.025456,-0.00011131,0.0048863,0.025948,0.017023,0.00060264,-0.0093926,-0.019388,-0.011534
-132,-0.03331,-0.025456,0.0013166,0.014168,0.023092,0.10091,0.0020305,-0.010107,-0.016532,-0.0090357
-131,-0.03331,-0.024386,0.0027445,0.01274,0.03273,0.076281,0.0038154,-0.0083217,-0.019745,-0.012248
-130,-0.034024,-0.028312,-0.0015392,0.0073851,0.046295,-0.0065368,0.0052433,-0.004395,-0.02153,-0.016175
-129,-0.030454,-0.02617,-0.004395,0.0073851,0.0048863,-0.042234,0.0052433,-0.0036811,-0.015104,-0.015461
-128,-0.024743,-0.026884,-0.0036811,0.0038154,-0.0026101,-0.040806,0.0063142,-0.00082526,-0.01796,-0.022601
-127,-0.021887,-0.027598,-0.0086787,0.0063142,-0.0097496,-0.036166,0.013811,-0.0015392,-0.016175,-0.022244
-126,-0.022244,-0.027955,-0.0026101,0.0084561,-0.017603,-0.03331,0.015596,-0.0068938,-0.012962,-0.01439
-125,-0.021173,-0.020102,-0.0090357,0.0084561,-0.018674,-0.018317,0.016309,-0.010464,-0.012605,-0.0068938
-124,-0.025099,-0.014747,-0.010464,0.011312,-0.015461,0.020593,0.029874,-0.0083217,-0.013676,-0.0090357
-123,-0.02617,-0.024386,0.009884,0.0045293,-0.0090357,0.025591,0.031659,-0.0015392,-0.014747,-0.0093926
-122,-0.029383,-0.031882,0.0045293,-0.004395,-0.016175,0.0056003,0.022378,-0.00046829,-0.014033,-0.018317
-121,-0.028312,-0.019745,-0.004395,-0.0079647,-0.018317,0.0063142,0.013097,-0.004752,-0.012248,-0.029026
-120,-0.02617,-0.011178,-0.020459,0.0013166,-0.017603,0.014882,-0.00046829,0.0016736,-0.013676,-0.02974
-119,-0.024743,-0.011178,-0.034024,0.0084561,-0.01439,0.0059572,-0.023315,-0.0022532,-0.01439,-0.02617
-118,-0.026527,-0.017246,-0.025456,0.0066712,-0.026884,0.0020305,-0.037237,-0.0029671,-0.022244,-0.035809
-117,-0.028312,-0.020102,-0.011891,0.0038154,-0.20252,0.0041724,-0.032239,-0.0022532,-0.027241,-0.042948
-116,-0.025813,-0.029026,-0.0051089,-0.0029671,-0.44847,0.0034584,-0.02153,-0.00046829,-0.028312,-0.036166
-115,-0.027241,-0.029026,-0.0058229,-0.0036811,-0.04509,-0.00046829,0.0027445,-0.0018962,-0.032239,-0.027598
-114,-0.023315,-0.030811,-0.013676,-0.0093926,0.30296,-0.0018962,0.02452,-0.0054659,-0.031525,-0.022958
-113,-0.022958,-0.032953,-0.015818,-0.0093926,0.25084,-0.0090357,0.033801,-0.0076078,-0.029026,-0.030811
-112,-0.023315,-0.037951,-0.0051089,-0.0090357,0.13625,-0.010107,0.038442,-0.0072508,-0.028312,-0.031168
-111,-0.022958,-0.036523,-0.0054659,-0.011178,0.064501,-0.010821,0.034158,-0.0061799,-0.023672,-0.022601
-110,-0.021887,-0.035809,-0.020102,0.011669,0.040584,-0.0065368,0.019522,-0.004395,-0.014033,-0.016532
-109,-0.018317,-0.032239,-0.034738,0.023092,0.019879,0.0066712,-0.0051089,-0.00082526,-0.010107,-0.021887
-108,-0.020459,-0.032596,-0.019031,0.025234,0.012383,0.014882,-0.023315,0.0059572,-0.010821,-0.028312
-107,-0.023672,-0.035452,-0.011178,0.018094,0.0070282,0.014168,-0.036166,-0.00046829,-0.011891,-0.030811
-106,-0.026884,-0.03688,-0.0018962,0.01274,-0.0011822,-0.00082526,-0.038664,-0.0076078,-0.011534,-0.027955
-105,-0.026884,-0.035452,-0.0054659,0.008813,-0.0065368,-0.0097496,-0.032596,-0.0090357,-0.029026,-0.025813
-104,-0.029383,-0.034024,0.00095961,0.0020305,-0.012605,-0.0011822,-0.0015392,-0.0093926,-0.052229,-0.023315
-103,-0.027241,-0.02974,0.010955,-0.00046829,-0.014747,0.0056003,0.012026,-0.004752,-0.031168,-0.020816
-102,-0.023315,-0.030097,0.014168,-0.0029671,-0.018674,0.0077421,0.011312,-0.0061799,-0.01439,-0.02153
-101,-0.027241,-0.030811,0.019522,-0.0083217,-0.02153,0.0048863,-0.00082526,-0.004038,-0.016175,-0.015818
-100,-0.024743,-0.02974,0.022735,-0.0015392,-0.020102,0.00024566,-0.0090357,0.0013166,-0.017603,-0.025813
-99,-0.023315,-0.024743,0.022021,0.0041724,-0.019031,-0.0054659,-0.004395,0.009527,-0.024743,-0.028669
-98,-0.020102,-0.025813,0.0077421,0.0073851,-0.019031,-0.017246,0.019165,0.01274,-0.025456,-0.019388
-97,-0.017603,-0.02617,-0.013319,0.0031015,-0.019031,-0.030097,0.049508,0.0038154,-0.018674,-0.012248
-96,-0.022244,-0.031168,-0.023315,-0.010107,-0.01796,-0.031168,0.056648,-0.004038,-0.010821,-0.0093926
-95,-0.024029,-0.026884,-0.057584,-0.020459,-0.020459,-0.011178,0.057718,-0.010107,-0.0061799,-0.0083217
-94,-0.02153,-0.02617,-0.061511,-0.00082526,-0.013676,0.019522,0.052364,-0.0072508,-0.011178,-0.011178
-93,-0.01796,-0.027241,-0.026884,0.025591,-0.015461,0.017737,0.04344,-0.0018962,-0.020102,-0.024386
-92,-0.019031,-0.026527,-0.021887,0.063073,-0.015461,0.0031015,0.033087,-0.0033241,-0.022958,-0.026527
-91,-0.021887,-0.027598,-0.014747,0.034515,-0.022601,-0.0033241,0.028804,-0.0029671,-0.017246,-0.024743
-90,-0.024029,-0.028312,-0.010821,-0.010107,-0.019745,-0.0065368,-0.0065368,-0.004038,-0.0093926,-0.035452
-89,-0.026527,-0.027598,-0.0036811,-0.032239,-0.014747,-0.004395,-0.051873,-0.012962,-0.00046829,-0.044376
-88,-0.025099,-0.020102,-0.00046829,-0.051159,-0.02153,0.0013166,-0.079716,-0.014033,0.0077421,-0.04509
-87,-0.025813,-0.022244,-0.0026101,-0.029383,-0.014033,-0.0011822,-0.063653,-0.012605,0.018808,-0.030811
-86,-0.02617,-0.02617,-0.0011822,-0.0015392,-0.0093926,-0.0036811,-0.016175,-0.0079647,0.011312,-0.016175
-85,-0.027598,-0.021887,0.011312,0.015953,-0.0036811,-0.0036811,0.019879,-0.0015392,-0.020816,-0.020102
-84,-0.027598,-0.024743,0.028804,0.012383,-0.0083217,-0.0029671,0.031659,-0.0011822,-0.044733,-0.024029
-83,-0.029383,-0.027241,0.02809,0.0031015,-0.0022532,-0.0036811,0.010955,-0.010107,-0.056156,-0.02617
-82,-0.029383,-0.031525,0.019165,-0.0026101,0.0038154,-0.0011822,0.0063142,-0.0079647,-0.053657,-0.026527
-81,-0.029026,-0.028669,-0.004752,0.023806,0.00095961,0.0020305,-0.004038,0.0038154,-0.04152,-0.020816
-80,-0.025456,-0.023672,-0.04509,0.028804,-0.00046829,0.00060264,-0.013676,0.0045293,-0.04152,-0.018674
-79,-0.023672,-0.015461,-0.040449,0.030231,-0.0061799,0.0027445,-0.030097,0.0020305,-0.039021,-0.012248
-78,-0.025813,-0.019031,-0.0090357,0.090917,-0.0090357,0.0048863,-0.0097496,-0.0022532,-0.020102,-0.0090357
-77,-0.023672,-0.021173,-0.0065368,0.10448,-0.0068938,0.00024566,-0.022244,-0.0036811,-0.015461,-0.011178
-76,-0.021173,-0.019388,-0.0086787,0.03987,-0.00011131,-0.0054659,-0.059012,-0.0015392,-0.043662,-0.014747
-75,-0.024029,-0.02153,-0.00046829,-0.053657,-0.0033241,-0.0015392,-0.06044,-0.004395,-0.055085,-0.014033
-74,-0.028669,-0.030454,0.009527,-0.11149,-0.013319,0.0031015,-0.010464,-0.0026101,-0.049017,-0.0093926
-73,-0.02617,-0.02617,0.015239,-0.1047,-0.012605,0.0073851,0.024877,0.00024566,-0.031168,-0.010107
-72,-0.027955,-0.020816,0.024163,-0.061511,-0.010107,0.009884,0.032016,-0.00082526,-0.0079647,-0.0090357
-71,-0.032953,-0.028312,0.024877,-0.0018962,-0.0072508,0.015596,0.02095,-0.004395,0.0031015,-0.010464
-70,-0.032239,-0.031882,0.013811,0.088418,-0.0061799,0.016666,0.018451,-0.010821,0.0041724,-0.011534
-69,-0.030454,-0.022958,0.00060264,0.052007,-0.020459,0.0077421,0.02095,-0.020459,0.0052433,-0.010821
-68,-0.031882,-0.025099,0.00060264,0.01274,-0.0097496,0.0013166,0.036657,-0.017603,0.015239,-0.019745
-67,-0.030097,-0.014033,-0.017603,-0.004752,-0.0061799,-0.012962,0.039156,-0.0065368,0.015239,-0.028312
-66,-0.031525,-0.016889,-0.023672,-0.018674,-0.012962,-0.026884,0.029161,-0.0036811,0.0056003,-0.029383
-65,-0.02617,-0.028669,-0.012248,0.011312,-0.023672,-0.026527,0.014168,-0.0065368,0.0052433,-0.030097
-64,-0.020816,-0.025099,-0.013676,0.048437,-0.0083217,-0.024029,0.0016736,-0.0015392,0.012026,-0.028312
-63,-0.016889,-0.031525,-0.024029,0.034515,-0.0018962,-0.021887,0.0059572,-0.0011822,0.0052433,-0.027241
-62,-0.012962,-0.025456,-0.047232,-0.10613,-0.004395,-0.024029,0.016666,0.00024566,0.015953,-0.030811
-61,-0.014033,-0.02617,-0.041877,-0.21501,-0.0011822,-0.0065368,0.01738,-0.00046829,0.031302,-0.022244
-60,-0.012248,-0.029026,-0.037951,-0.1354,-0.0086787,-0.010107,0.016309,-0.004395,-0.052229,-0.024029
-59,-0.011891,-0.027241,-0.031168,0.0048863,-0.015461,-0.026527,0.024877,-0.0015392,-0.16182,-0.020459
-58,-0.019745,-0.02974,-0.0018962,0.082707,-0.022601,-0.028669,0.039156,-0.0029671,-0.14647,-0.021887
-57,-0.023672,-0.031882,0.034872,0.10984,-0.015818,-0.018317,0.040941,-0.0068938,-0.077932,-0.025813
-56,-0.024386,-0.032596,0.040227,0.13768,-0.0090357,0.0077421,0.040227,-0.0054659,-0.055799,-0.022601
-55,-0.027955,-0.02974,0.027019,0.21907,-0.010821,0.027019,0.023092,-0.004395,-0.029026,-0.022958
-54,-0.034024,-0.026527,-0.015818,0.19123,-0.016175,0.044867,-0.0036811,-0.0036811,-0.0018962,-0.019031
-53,-0.030454,-0.027598,-0.080073,0.074496,-0.019745,0.041655,-0.030454,0.0020305,-0.004752,-0.016889
-52,-0.030811,-0.020816,-0.078289,0.024163,-0.02153,0.018808,-0.039378,0.0027445,-0.016175,-0.015104
-51,-0.031882,-0.022244,-0.05687,0.0048863,-0.02153,-0.0036811,-0.025813,-0.0029671,0.010955,-0.011891
-50,-0.031525,-0.017603,-0.051516,-0.0093926,-0.017603,-0.0086787,-0.010821,-0.0022532,0.064858,-0.01439
-49,-0.024743,-0.02617,-0.039021,-0.0083217,-0.0097496,-0.0022532,-0.004038,-0.010464,0.054149,-0.010821
-48,-0.013676,-0.023315,-0.0065368,-0.011178,-0.010107,0.00060264,0.009884,-0.0065368,0.015239,-0.013319
-47,-0.016889,-0.027955,0.021307,-0.062225,-0.0086787,-0.004038,0.035229,-0.004752,-0.013319,-0.019388
-46,-0.020102,-0.02974,0.010955,-0.12541,-0.0061799,-0.004752,0.038085,-0.0068938,-0.050445,-0.02153
-45,-0.026884,-0.022958,0.015239,-0.09578,-0.0097496,-0.004752,0.026662,-0.0083217,-0.082572,-0.022601
-44,-0.020102,-0.026884,0.029161,-0.040806,-0.010107,-0.012962,-0.00046829,-0.0086787,-0.065081,-0.017603
-43,-0.010464,-0.031882,0.050936,-0.052229,-0.012962,-0.027241,-0.012962,-0.0051089,-0.032596,-0.017603
-42,-0.011891,-0.034381,0.051293,-0.034381,0.00060264,-0.028312,-0.0065368,-0.0065368,-0.024386,-0.020102
-41,-0.015104,-0.027955,0.0080991,-0.18538,0.0052433,-0.029026,0.013811,-0.0036811,-0.027598,-0.019031
-40,-0.01796,-0.01796,-0.029026,-0.37386,0.00024566,-0.021173,0.026305,-0.0015392,-0.026884,-0.025099
-39,-0.018317,-0.025456,-0.033667,-0.20537,-0.0079647,0.0038154,0.011312,-0.0033241,-0.013319,-0.027955
-38,-0.022601,-0.034381,-0.0533,0.12983,-0.00046829,0.015596,-0.0097496,0.0073851,0.0048863,-0.030097
-37,-0.029026,-0.025813,-0.075433,0.21229,0.019522,0.012026,-0.036523,0.018808,-0.0033241,-0.030454
-36,-0.030454,-0.015104,-0.046875,0.15589,0.0077421,0.011312,-0.047589,0.0038154,-0.017603,-0.022244
-35,-0.036523,-0.017603,-0.0097496,0.074853,-0.0086787,0.010598,-0.032953,-0.0061799,-0.018317,-0.019388
-34,-0.037594,-0.027955,0.0020305,0.009527,-0.01439,0.010955,-0.0086787,-0.010464,-0.021173,-0.020102
-33,-0.034738,-0.028312,0.00917,0.041655,-0.004752,0.01274,0.0045293,-0.012962,-0.021173,-0.023315
-32,-0.035809,-0.027598,0.010241,0.12626,0.00095961,0.011669,0.014168,-0.012248,-0.02153,-0.020459
-31,-0.030811,-0.027241,0.022021,0.1591,-0.0068938,0.019165,0.021664,-0.0097496,-0.018674,-0.022244
-30,-0.02153,-0.032239,0.015953,0.17159,-0.0097496,0.023092,0.022735,-0.0072508,-0.014033,-0.031882
-29,-0.020459,-0.032239,0.014882,0.088061,-0.0015392,0.02452,0.018808,-0.00011131,-0.0072508,-0.038308
-28,-0.023672,-0.027241,0.014168,0.11698,-0.0083217,0.023806,0.013811,0.00024566,-0.0015392,-0.033667
-27,-0.028312,-0.02617,0.0020305,0.12162,-0.010821,0.013454,0.0084561,-0.0026101,0.0041724,-0.026527
-26,-0.027955,-0.024386,-0.0083217,0.095558,-0.0079647,0.0077421,0.0077421,-0.0033241,0.008813,-0.018674
-25,-0.02617,-0.023672,0.0066712,0.046652,-0.010107,0.0038154,0.0070282,-0.0058229,0.0020305,-0.016175
-24,-0.028669,-0.027241,0.0045293,-0.012248,-0.014033,-0.0011822,0.0052433,-0.0061799,0.0070282,-0.013676
-23,-0.030811,-0.02974,0.029874,-0.031525,-0.010464,-0.0026101,0.0045293,-0.0051089,0.0027445,-0.010821
-22,-0.032239,-0.044019,0.058789,-0.055085,-0.0093926,-0.0090357,0.0034584,-0.0090357,-0.06401,-0.010464
-21,-0.035452,-0.04509,0.037371,-0.061868,-0.010821,-0.013676,0.0048863,-0.010107,-0.095423,-0.0061799
-20,-0.038308,-0.040092,-0.0065368,-0.079003,-0.012605,-0.022244,0.0063142,-0.0076078,-0.059369,-0.012248
-19,-0.044733,-0.037594,-0.025099,-0.022601,-0.0036811,-0.015104,0.0077421,-0.004752,-0.035095,-0.016889
-18,-0.052586,-0.032239,-0.0097496,0.08235,0.010598,-0.0054659,0.014168,-0.0029671,-0.017246,-0.020459
-17,-0.052586,-0.028669,-0.004038,-0.0086787,0.018094,-0.0036811,0.020593,-0.00046829,-0.011534,-0.024743
-16,-0.049017,-0.024386,-0.02153,-0.11113,0.019879,-0.0026101,0.038442,-0.004752,-0.0079647,-0.027598
-15,-0.042234,-0.019745,-0.025813,-0.16039,0.0031015,-0.0097496,0.050936,-0.0090357,0.00095961,-0.036166
-14,-0.038664,-0.012962,-0.015461,-0.16646,-0.0072508,-0.032953,0.044153,-0.0068938,0.0041724,-0.036166
-13,-0.024743,-0.014033,-0.028669,-0.15147,-0.0054659,-0.067936,0.026305,-0.0036811,-0.0072508,-0.02974
-12,-0.016175,-0.023315,-0.019745,-0.018317,-0.022601,-0.084714,-0.0018962,0.0020305,-0.014033,-0.027598
-11,-0.0065368,-0.023672,-0.013319,0.0048863,-0.025456,-0.046518,-0.046518,0.008813,-0.011891,-0.022244
-10,0.00917,-0.023672,-0.027241,-0.19288,-0.034738,0.027019,-0.074005,0.00060264,-0.025813,-0.018674
-9,0.014525,-0.02153,-0.025456,-0.10578,-0.031525,0.023092,-0.072934,-0.00011131,-0.065438,-0.022958
-8,0.00060264,-0.012248,-0.029026,0.16802,-0.024743,-0.004395,-0.035809,0.01274,-0.075076,-0.022244
-7,-0.010464,0.00060264,-0.02617,0.16838,-0.02974,0.043796,0.00060264,0.019522,-0.049374,-0.024386
-6,-0.0079647,0.0016736,-0.0058229,-0.059369,-0.034738,0.037371,0.010955,0.0080991,-0.022601,-0.018674
-5,-0.0093926,-0.0068938,0.011669,-0.13433,-0.035452,0.012026,0.017737,-0.0058229,-0.010821,-0.017246
-4,-0.022601,-0.0079647,0.024163,-0.08757,-0.016889,0.010598,0.022735,-0.0076078,0.011312,-0.019388
-3,-0.026884,-0.014747,0.033801,0.0077421,-0.022244,0.010241,0.019165,-0.016175,-0.017246,-0.012962
-2,-0.027598,-0.020459,0.033087,0.12661,-0.026527,0.012383,0.0066712,-0.014747,-0.084714,-0.00082526
-1,-0.02974,-0.017603,0.019879,0.16945,-0.0083217,0.01738,0.009884,-0.012605,-0.10042,-0.0015392
0,-0.027241,-0.0054659,0.027733,0.13875,-0.0033241,0.013811,0.025234,-0.015461,-0.049374,-0.0065368
1,-0.028312,0.00095961,0.05165,0.047366,-0.011891,0.0063142,0.025234,-0.014033,-0.016175,-0.0079647
2,-0.030811,-0.015818,0.035943,0.010241,-0.01439,0.0031015,0.027019,-0.018317,-0.004752,-0.004752
3,-0.028669,-0.019031,-0.0036811,0.0034584,-0.0079647,0.0020305,0.019522,-0.0079647,0.011669,-0.019745
4,-0.032596,-0.024386,-0.010821,-0.014033,0.0052433,0.0052433,-0.0036811,0.013811,-0.011178,-0.063653
5,-0.031168,-0.025813,-0.027955,-0.012962,0.0031015,0.0084561,-0.013676,-0.00046829,-0.053657,-0.056513
6,-0.029026,-0.018674,-0.067936,-0.026884,-0.0086787,-0.00046829,-0.0076078,-0.0076078,-0.04509,-0.045804
7,-0.027955,-0.023672,-0.062939,-0.025813,0.0013166,-0.0026101,0.0038154,-0.0090357,-0.0018962,-0.03688
8,-0.023315,-0.029383,-0.040449,-0.025456,-0.004395,-0.00046829,0.0084561,-0.004395,0.010598,-0.030811
9,-0.025456,-0.036166,-0.01796,-0.019388,-0.0093926,-0.0061799,-0.0015392,-0.0022532,-0.012962,-0.027598
10,-0.023315,-0.038308,0.0034584,0.020593,-0.0054659,-0.019388,-0.01439,-0.0029671,-0.023315,-0.024029
11,-0.025099,-0.047589,-0.011891,0.032373,0.0045293,-0.02153,-0.015818,0.00095961,-0.022244,-0.019388
12,-0.024386,-0.042234,-0.014747,-0.0076078,-0.0083217,-0.012605,-0.0076078,-0.0061799,-0.021173,-0.01796
13,-0.02974,-0.038664,0.00917,-0.031882,-0.0061799,-0.0083217,0.0034584,-0.0051089,-0.019388,-0.017603
14,-0.036166,-0.037237,0.037371,0.031659,-0.012605,-0.023672,0.028447,0.0020305,-0.01439,-0.019745
15,-0.034024,-0.03688,0.044867,0.036657,-0.0076078,-0.026884,0.034872,0.0020305,-0.014033,-0.01796
16,-0.033667,-0.029026,0.024877,0.0013166,-0.0058229,0.0023875,0.033444,-0.0011822,-0.011891,-0.015104
17,-0.031882,-0.025456,0.026305,0.052721,-0.016889,0.023806,0.02095,-0.004395,-0.0061799,-0.017603
18,-0.031168,-0.026884,0.0034584,0.030231,-0.020459,0.010241,-0.011891,0.009527,-0.004395,-0.020459
19,-0.027241,-0.029026,-0.02617,-0.0093926,-0.020816,-0.033667,-0.027598,0.017737,-0.012962,-0.020816
20,-0.025813,-0.028312,-0.027241,-0.025813,-0.024386,-0.045447,-0.015818,0.0020305,-0.0086787,-0.02153
21,-0.027598,-0.02974,-0.032596,-0.023672,-0.0065368,0.0052433,-0.00046829,-0.0097496,-0.012248,-0.015104
22,-0.027241,-0.03688,-0.056156,0.0041724,-0.010821,0.042012,0.027019,-0.013676,-0.015104,-0.013676
23,-0.025813,-0.036523,-0.04866,0.034158,-0.0097496,0.040941,0.038799,-0.017603,-0.010107,-0.014033
24,-0.029383,-0.027955,-0.028312,0.0063142,-0.012605,0.02095,0.027733,-0.023315,-0.004752,-0.01439
25,-0.031525,-0.026527,-0.011178,0.0020305,-0.019031,-0.0061799,0.013454,-0.018674,-0.0018962,-0.013676
26,-0.028312,-0.014747,-0.00011131,0.0031015,-0.0083217,-0.036523,-0.013319,-0.015461,-0.0097496,-0.012605
27,-0.026884,-0.0068938,0.0052433,-0.0093926,-0.004752,-0.066865,-0.030097,-0.015461,-0.012962,-0.0054659
28,-0.022244,-0.0093926,0.0052433,-0.014747,-0.017603,-0.071506,-0.031882,-0.015104,-0.011178,-0.010464
29,-0.023672,-0.032953,-0.0061799,-0.0076078,-0.029383,-0.035095,-0.025813,-0.011891,-0.0093926,-0.011891
30,-0.026884,-0.027598,-0.0083217,-0.022601,-0.016175,0.034515,-0.011891,-0.004395,-0.011178,-0.011178
31,-0.026527,-0.024029,-0.012248,0.027019,-0.016532,0.080208,-0.004752,-0.00082526,-0.012962,-0.012605
32,-0.028312,-0.034381,0.0020305,0.060574,-0.022244,0.054506,-0.0033241,-0.0054659,-0.025813,-0.015818
33,-0.029026,-0.03688,0.02452,-0.00046829,-0.014033,0.012383,0.0052433,-0.0054659,-0.018674,-0.019388
34,-0.030097,-0.034024,0.02452,-0.020459,-0.015818,0.0045293,0.010955,-0.0029671,-0.019031,-0.025813
35,-0.027955,-0.024386,0.027376,-0.024029,-0.012248,-0.00046829,0.020593,0.0056003,-0.018674,-0.032596
36,-0.027955,-0.014747,0.0041724,-0.046161,-0.014033,-0.0015392,0.024163,0.0073851,0.01738,-0.035095
37,-0.027955,-0.015461,-0.040092,-0.060797,-0.011534,-0.0011822,0.019522,0.0059572,0.022378,-0.032953
38,-0.025813,-0.024029,-0.050088,-0.0076078,-0.011534,-0.0036811,0.025234,0.0027445,-0.030811,-0.030811
39,-0.024029,-0.036166,-0.031525,0.065572,0.0052433,-0.0026101,0.014882,-0.0015392,-0.093281,-0.024386
40,-0.025099,-0.030454,-0.039021,0.061288,0.022378,0.0052433,-0.004395,-0.0033241,-0.091854,-0.022601
41,-0.024386,-0.025099,-0.040092,0.038442,0.0041724,0.009527,-0.01439,-0.0018962,-0.041877,-0.018317
42,-0.024386,-0.019745,-0.040092,0.009527,-0.00011131,0.010598,-0.004038,-0.0061799,-0.014747,-0.012962
43,-0.024743,-0.028312,-0.025456,-0.017603,-0.0015392,0.014882,-0.00046829,-0.0097496,-0.012962,-0.014033
44,-0.026527,-0.039021,-0.011534,-0.020816,-0.00011131,0.01274,0.0031015,-0.0086787,-0.024029,-0.016175
45,-0.026884,-0.031168,0.009884,-0.034024,0.00917,-0.00082526,0.0066712,-0.004038,-0.016532,-0.019745
46,-0.026884,-0.028312,0.033444,-0.046518,-0.041877,-0.028669,0.01274,-0.0018962,-0.0011822,-0.024029
47,-0.028312,-0.049017,0.025948,-0.07936,-0.33174,-0.066151,0.034158,0.0023875,-0.0026101,-0.019745
48,-0.031525,-0.050088,0.024877,-0.052943,-0.32317,-0.097565,0.040227,-0.0015392,-0.02617,-0.02153
49,-0.02617,-0.036166,0.04808,0.055934,0.10127,-0.11434,0.034515,-0.0015392,-0.062939,-0.025813
50,-0.024743,-0.032953,0.014882,0.12661,0.21086,-0.062225,0.020236,-0.0011822,-0.065795,-0.025813
51,-0.022958,-0.032239,-0.038308,0.13268,0.12055,0.049865,-0.0022532,-0.010464,-0.043305,-0.022601
52,-0.023315,-0.016532,-0.038664,0.043796,0.081636,0.080565,-0.0086787,-0.017246,-0.016532,-0.02153
53,-0.025099,-0.0065368,-0.04152,-0.0022532,0.05986,0.014525,0.0038154,-0.014033,0.00095961,-0.022958
54,-0.024386,-0.018674,-0.039378,-0.051159,0.077352,0.019165,-0.004752,-0.016532,0.0038154,-0.02153
55,-0.027598,-0.014747,-0.017603,-0.067936,0.084848,0.060574,-0.031168,-0.014747,0.0045293,-0.02153
56,-0.019745,-0.018317,-0.0011822,0.017023,0.041298,0.02452,-0.044019,-0.0054659,0.018451,-0.02153
57,-0.017603,-0.018317,0.0038154,0.066286,0.01738,-0.01796,-0.027241,0.011669,-0.0018962,-0.022601
58,-0.02617,-0.015461,-0.0093926,-0.0086787,0.00060264,-0.026884,-0.0029671,0.019165,-0.081858,-0.024386
59,-0.032953,-0.017603,-0.019031,-0.047232,-0.090426,-0.022601,0.0020305,0.0059572,-0.071149,-0.0093926
60,-0.03331,-0.02153,-0.046161,0.0066712,-0.40599,-0.0051089,0.0052433,-0.00082526,-0.02617,-0.0068938
61,-0.026884,-0.027598,-0.060083,0.039156,-0.30925,0.0023875,0.012383,-0.0068938,-0.0072508,-0.0079647
62,-0.018674,-0.029383,-0.0061799,0.040584,0.1973,0.0045293,0.019165,-0.0054659,0.0034584,-0.013676
63,-0.021173,-0.030097,0.00095961,-0.084357,0.26976,0.037014,0.021664,0.0034584,0.0034584,-0.019745
64,-0.022244,-0.034381,-0.012962,-0.1354,0.15053,0.038799,0.019879,0.0059572,-0.010464,-0.031882
65,-0.024386,-0.026527,-0.0011822,-0.091854,0.057718,0.013097,0.018808,0.0048863,-0.030811,-0.045804
66,-0.017246,-0.02617,-0.0018962,-0.057584,0.011669,-0.0033241,0.020236,0.0034584,-0.044733,-0.052586
67,-0.019031,-0.026527,-0.0097496,0.10984,0.0034584,0.00060264,0.017023,-0.0022532,-0.037237,-0.042948
68,-0.023315,-0.020102,-0.020102,0.12483,-0.014033,-0.020816,0.014525,-0.0097496,-0.015104,-0.023672
69,-0.030097,-0.011891,-0.018317,0.12983,-0.022958,-0.055442,0.010955,-0.0076078,-0.0015392,-0.016889
70,-0.030097,-0.020816,0.0073851,0.096629,-0.031168,-0.050445,0.0052433,-0.0051089,0.0023875,-0.011178
71,-0.015461,-0.045447,0.022378,0.033801,-0.028669,-0.010107,0.008813,-0.0093926,0.015596,-0.0097496
72,-0.012248,-0.043305,0.013811,0.028447,-0.02617,0.047723,0.013811,-0.016889,-0.0051089,-0.016889
73,-0.015818,-0.031882,0.0045293,0.020236,-0.037594,0.029874,0.0070282,-0.0061799,-0.071506,-0.027598
74,-0.013676,-0.031882,-0.019031,0.014168,-0.039735,-0.034381,0.0038154,0.031659,-0.074005,-0.034738
75,-0.017603,-0.026527,-0.040092,0.034515,-0.03331,-0.046875,-0.0026101,0.027019,-0.037594,-0.042948
76,-0.019745,-0.018674,-0.004395,0.016309,-0.029383,0.025591,-0.0065368,0.0027445,-0.013319,-0.041877
77,-0.021887,-0.019388,0.041655,-0.026527,-0.039021,0.06343,-0.0051089,-0.0079647,0.00095961,-0.047232
78,-0.01796,-0.023315,0.05165,-0.094352,-0.04152,0.011312,-0.0011822,-0.01796,-0.0076078,-0.040092
79,-0.022601,-0.021173,0.053792,-0.13862,-0.019388,-0.004038,0.0020305,-0.024386,-0.0061799,-0.023315
80,-0.030811,-0.025456,0.046295,-0.10792,-0.034738,-0.022244,0.0031015,-0.025456,-0.0011822,-0.013319
81,-0.032953,-0.026527,-0.011534,0.033444,-0.049374,-0.040449,0.0013166,-0.020816,-0.013319,-0.011534
82,-0.035095,-0.027241,-0.055085,0.15374,-0.038664,-0.08757,0.0038154,-0.022244,-0.045447,-0.013319
83,-0.025099,-0.02617,-0.037594,0.14411,-0.044733,-0.13897,0.0016736,-0.015818,-0.042591,-0.010821
84,-0.017246,-0.029026,-0.012605,0.037014,-0.01796,-0.11506,0.0023875,-0.012605,-0.016175,-0.011891
85,-0.01796,-0.02617,-0.0093926,-0.019031,0.0066712,0.043796,0.019879,-0.0018962,-0.0076078,-0.015818
86,-0.019745,-0.021173,-0.022244,-0.057584,0.010955,0.20479,0.031302,-0.00082526,-0.014747,-0.016889
87,-0.026884,-0.018317,-0.039378,-0.04509,0.0027445,0.15696,0.033087,-0.0083217,-0.028312,-0.019388
88,-0.025456,-0.016175,-0.047589,-0.0018962,-0.015104,0.015239,0.035586,-0.0076078,-0.040092,-0.018317
89,-0.022244,-0.013676,0.008813,0.018808,-0.013676,-0.023315,0.016309,-0.004752,-0.026884,-0.018317
90,-0.022601,-0.010821,0.021664,0.033801,-0.0086787,-0.00011131,-0.012962,-0.00046829,-0.011178,-0.016532
91,-0.023315,-0.018317,0.0063142,-0.03331,0.010241,-0.0011822,-0.042591,0.0048863,-0.02617,-0.015104
92,-0.026527,-0.023315,0.00024566,-0.069721,0.015239,-0.013319,-0.052586,0.00095961,-0.02974,-0.017246
93,-0.028312,-0.029026,-0.0086787,0.047009,0.0048863,0.0048863,-0.037594,-0.0015392,-0.02153,-0.014747
94,-0.029383,-0.029026,-0.018317,0.015596,0.00060264,0.00024566,-0.010821,-0.004395,-0.0076078,-0.01439
95,-0.026884,-0.037237,0.00024566,-0.13326,-0.0072508,-0.019031,0.0038154,-0.004395,0.0070282,-0.013676
96,-0.02974,-0.035452,0.00024566,-0.031525,-0.0086787,-0.0061799,0.0084561,-0.0079647,0.0063142,-0.010107
97,-0.026527,-0.035452,-0.012248,0.032373,-0.02153,-0.012605,0.010598,-0.0093926,0.011669,-0.0079647
98,-0.024029,-0.03688,-0.043305,-0.0015392,-0.031525,-0.016889,0.022378,-0.004038,0.025591,-0.010821
99,-0.026884,-0.042234,-0.015104,-0.062939,-0.038664,-0.011178,0.030588,-0.0011822,0.017737,-0.013676
100,-0.027241,-0.031882,0.011312,-0.078289,-0.022244,-0.0018962,0.028447,-0.0022532,0.0063142,-0.017603
101,-0.031882,-0.017603,-0.0022532,0.030588,-0.091854,0.013097,0.030231,0.00024566,-0.0011822,-0.019745
102,-0.03688,-0.01796,0.026662,0.1334,-0.29711,0.02809,0.022378,0.0023875,-0.016175,-0.019031
103,-0.029026,-0.025813,0.053435,0.15839,-0.16396,0.034158,0.00024566,0.00060264,-0.045804,-0.020816
104,-0.024743,-0.029026,0.071283,0.063787,0.15874,0.014525,-0.02617,0.0031015,-0.060797,-0.019388
105,-0.025099,-0.027955,0.052364,0.024877,0.20872,-0.014033,-0.034738,0.0034584,-0.047946,-0.020816
106,-0.027955,-0.030454,-0.004752,0.027733,0.13411,-0.029383,-0.020816,0.00060264,-0.040449,-0.021173
107,-0.031882,-0.032239,-0.066508,0.025948,-0.086142,-0.01439,-0.011534,-0.004038,-0.035452,-0.016889
108,-0.025456,-0.027598,-0.08043,-0.0051089,-0.46953,0.0020305,-0.0051089,-0.0033241,-0.023315,-0.016889
109,-0.029026,-0.024029,-0.03331,0.037371,-0.14397,-0.025456,0.0038154,-0.0011822,-0.019745,-0.019745
110,-0.025813,-0.022244,0.046652,0.011312,0.32117,-0.083286,0.012383,-0.0029671,-0.032953,-0.02153
111,-0.024029,-0.018317,0.049865,-0.0011822,0.32723,-0.076861,0.026305,-0.0051089,-0.043305,-0.020102
112,-0.028312,-0.017246,-0.0093926,0.0080991,0.24156,-0.015461,0.050936,-0.0036811,-0.0083217,-0.017246
113,-0.03331,-0.022601,-0.066151,-0.027955,0.1234,0.029518,0.056291,-0.0011822,0.00095961,-0.019031
114,-0.022958,-0.030454,-0.10685,-0.078646,0.037371,0.042369,0.047723,-0.0018962,-0.0058229,-0.016889
115,-0.01439,-0.029026,-0.11863,-0.075433,0.0084561,0.0363,0.024163,-0.004752,0.0023875,-0.010464
116,-0.016889,-0.020459,-0.057941,-0.066865,-0.03331,0.043796,-0.010107,-0.004038,-0.042234,-0.010107
117,-0.019031,-0.022244,0.023449,-0.077932,-0.17431,0.071283,-0.038308,-0.004038,-0.11292,-0.011891
118,-0.025813,-0.020102,0.048794,0.061645,-0.245,0.040584,-0.047589,-0.0018962,-0.095066,-0.011178
119,-0.022601,-0.014747,0.040584,0.046652,-0.049017,-0.0533,-0.042948,-0.0036811,-0.044733,-0.023672
120,-0.021887,-0.01439,0.012383,-0.059369,0.11019,-0.10006,-0.031168,-0.0033241,-0.027241,-0.038664
121,-0.019031,-0.017246,-0.056156,-0.04866,0.14196,-0.060083,-0.010821,-0.0068938,-0.022244,-0.039378
122,-0.023672,-0.014747,-0.073648,0.02095,0.080922,-0.011178,0.0038154,-0.0068938,-0.024029,-0.034381
123,-0.026527,-0.014747,-0.031882,0.085205,-0.014033,0.024163,0.013454,-0.0051089,-0.018674,-0.017603
124,-0.021173,-0.016175,-0.032596,-0.034024,-0.049017,0.023806,0.021664,-0.004038,-0.004038,-0.012248
125,-0.02153,-0.022601,-0.029383,-0.11363,-0.029383,0.020236,0.027019,-0.0026101,0.012026,-0.0018962
126,-0.016532,-0.030454,-0.025099,-0.072577,0.010241,0.01274,0.022021,-0.004038,0.02095,0.00060264
127,-0.017246,-0.032596,-0.011178,0.045581,0.025591,-0.004395,0.021307,-0.0061799,0.023092,-0.032953
128,-0.024386,-0.030097,-0.0011822,0.058789,0.010598,-0.031168,0.017737,-0.015818,0.030945,-0.059726
129,-0.027598,-0.027955,0.0041724,0.022735,-0.016532,-0.070435,0.010598,-0.011178,0.0070282,-0.082572
130,-0.025813,-0.02153,0.018451,0.080922,-0.024386,-0.096494,0.010598,-0.0083217,-0.061154,-0.085785
131,-0.024743,-0.01796,0.016666,0.084491,-0.030454,-0.059726,0.011669,0.00095961,-0.091854,-0.086142
132,-0.029026,-0.022244,0.01274,0.036657,-0.04866,-0.017246,0.018094,0.018094,-0.061868,-0.072934
133,-0.030811,-0.026527,0.00024566,0.0363,-0.065795,-0.018674,0.013811,0.015239,-0.023315,-0.0533
134,-0.02974,-0.026527,-0.020102,0.04344,-0.059369,0.031659,0.027376,0.0020305,-0.0079647,-0.030811
135,-0.031168,-0.032239,0.019522,0.071997,-0.062582,0.12197,0.037371,-0.0018962,-0.0068938,-0.017246
136,-0.032239,-0.035452,0.012383,0.010955,-0.039735,0.12769,0.033444,-0.00011131,-0.00046829,-0.017603
137,-0.034381,-0.039021,-0.0026101,0.067714,-0.013676,0.062002,0.019879,-0.00082526,0.0031015,-0.0065368
138,-0.032239,-0.035809,0.0045293,0.092702,-0.039021,0.04344,-0.0065368,-0.0061799,0.0031015,-0.0022532
139,-0.031168,-0.034024,0.010598,0.032016,-0.026884,0.038442,-0.031882,-0.0090357,0.03273,0.0016736
140,-0.02974,-0.041163,0.021307,-0.017246,-0.02974,0.017023,-0.034738,-0.0068938,0.0034584,-0.0015392
141,-0.029026,-0.030097,0.035586,-0.057227,-0.012962,-0.016532,-0.020816,0.00024566,-0.040092,-0.004752
142,-0.029383,-0.016175,0.012383,-0.079003,-0.0051089,-0.051516,-0.0036811,0.0048863,-0.047589,-0.0079647
143,-0.034381,-0.020459,-0.0076078,-0.11327,-0.14683,-0.081501,-0.00046829,-0.004038,-0.044376,-0.0079647
144,-0.032953,-0.018317,-0.050445,-0.095423,-0.92182,-0.060797,0.0031015,-0.0090357,-0.037594,-0.0076078
145,-0.035452,-0.010821,-0.064724,-0.015461,-0.52129,0.03273,0.0034584,-0.00046829,-0.020816,-0.0093926
146,-0.028669,-0.0033241,-0.035095,0.069856,0.56891,0.022735,0.0066712,0.035586,-0.010821,-0.010107
147,-0.020459,-0.019388,-0.035452,0.10127,0.59853,-0.042948,-0.00011131,0.022735,-0.022244,-0.0072508
148,-0.025099,-0.030097,-0.014033,0.029874,0.36721,0.0056003,-0.0026101,-0.0090357,-0.035809,-0.010464
149,-0.024029,-0.029383,0.014882,-0.02617,0.14732,0.056648,-0.0051089,-0.020102,-0.049017,-0.010464
150,-0.024743,-0.031525,0.010598,0.0084561,0.12162,0.017737,-0.0018962,-0.025456,-0.044376,-0.011891
151,-0.015461,-0.034024,0.0063142,-0.0018962,0.052721,-0.004395,-0.0029671,-0.025099,-0.034738,-0.011534
152,-0.022601,-0.031168,0.015596,-0.02617,-0.040449,-0.012605,-0.0015392,-0.025456,-0.024743,-0.011891
153,-0.032239,-0.02974,0.017737,-0.054728,-0.31139,-0.031882,0.008813,-0.020102,-0.015104,-0.013676
154,-0.034024,-0.032239,0.015953,-0.077218,-0.54057,-0.025099,0.027376,-0.011891,-0.013676,-0.012248
155,-0.035095,-0.034738,-0.027955,-0.047232,-0.68907,-0.0093926,0.029518,-0.011891,-0.004038,-0.015104
156,-0.022601,-0.030811,-0.062582,0.0073851,0.11448,-0.0051089,0.025591,-0.0051089,0.0013166,-0.020102
157,-0.0061799,-0.02617,-0.035095,0.035943,0.75667,0.0020305,0.012026,-0.004038,0.0066712,-0.015818
158,-0.01796,-0.021887,0.0016736,0.0073851,0.6353,-0.011891,-0.010464,-0.0051089,0.010598,-0.018674
159,-0.022958,-0.014033,0.045938,-0.019388,0.31438,-0.020459,-0.026527,-0.0022532,0.014168,-0.019388
160,-0.022244,-0.016532,0.036657,-0.030454,0.16802,-0.023315,-0.012962,-0.0051089,0.0020305,-0.019388
161,-0.020459,-0.026527,0.0041724,-0.087927,0.065572,-0.0076078,0.0063142,-0.0051089,-0.030454,-0.021173
162,-0.019031,-0.026527,0.018451,-0.12755,0.017023,0.054863,0.02095,-0.0033241,-0.045804,-0.020459
163,-0.026884,-0.029026,0.015239,-0.13362,-0.036166,0.087347,0.022735,-0.004752,-0.025813,-0.024029
164,-0.027955,-0.028312,0.028804,-0.043305,-0.06401,0.049865,0.022021,-0.0083217,-0.010464,-0.024743
165,-0.026884,-0.026884,0.023449,0.15767,-0.069721,-0.0083217,0.018094,-0.0097496,-0.0018962,-0.022958
166,-0.020816,-0.02974,0.0063142,0.14589,-0.066508,-0.0086787,-0.0065368,-0.0061799,-0.018674,-0.019388
167,-0.022601,-0.027955,-0.00046829,0.027019,-0.058298,-0.014747,-0.040449,-0.0058229,-0.028669,-0.023672
168,-0.020102,-0.030454,-0.012962,0.047366,-0.081144,-0.015818,-0.050445,-0.0022532,-0.023315,-0.024743
169,-0.023315,-0.02974,-0.013319,0.064144,-0.085428,-0.033667,-0.031882,-0.00082526,-0.017246,-0.022601
170,-0.025813,-0.019388,-0.0090357,0.093773,-0.098636,-0.10756,0.0013166,-0.0058229,0.0034584,-0.020816
171,-0.026884,-0.020102,0.0034584,0.060217,-0.15004,-0.15539,0.012383,-0.015461,-0.0011822,-0.023672
172,-0.027955,-0.026527,0.009884,0.030588,-0.10042,-0.14397,0.023092,-0.015104,-0.020459,-0.020102
173,-0.025099,-0.027598,0.0034584,0.0041724,-0.017603,-0.047946,0.030231,-0.004752,-0.030454,-0.017603
174,-0.033667,-0.023672,-0.0011822,-0.0090357,0.012026,0.075567,0.036657,0.0020305,-0.023315,-0.023672
175,-0.029383,-0.027955,0.0020305,0.00024566,-0.023672,0.13839,0.032016,0.0045293,-0.017603,-0.025099
176,-0.023315,-0.025456,-0.0011822,0.037371,-0.065081,0.083778,0.030588,0.0052433,-0.024743,-0.02153
177,-0.02617,-0.019745,-0.015818,0.052007,-0.1454,-0.019031,0.017737,0.0059572,-0.043305,-0.020102
178,-0.027241,-0.019745,-0.02617,-0.0026101,-0.54628,0.00917,0.017737,0.0070282,-0.037594,-0.025813
179,-0.035095,-0.024386,-0.021173,-0.015104,-0.81722,0.037728,0.020593,0.0056003,-0.016889,-0.027955
180,-0.033667,-0.023315,-0.012605,0.02095,-0.22108,0.0048863,0.012026,0.0073851,0.0016736,-0.02617
181,-0.020102,-0.024386,-0.018674,0.010955,0.36257,-0.037951,-0.019031,0.00917,-0.0079647,-0.020102
182,-0.015818,-0.022244,-0.012605,0.0013166,0.59211,-0.08043,-0.039021,0.0056003,-0.06401,-0.018674
183,-0.016532,-0.026884,0.0048863,0.0048863,0.38792,-0.0065368,-0.032953,0.0013166,-0.069007,-0.017246
184,-0.028312,-0.032239,0.012383,0.014168,0.23264,0.1002,-0.019031,-0.0011822,-0.029383,-0.011891
185,-0.027598,-0.029026,-0.013676,0.014168,0.13875,0.098413,-0.015461,-0.0018962,-0.017246,-0.0079647
186,-0.027955,-0.028312,-0.012962,-0.016889,0.073068,0.025948,-0.019031,-0.004038,-0.004395,-0.014747
187,-0.02974,-0.031168,0.00060264,-0.072577,0.023806,0.03273,-0.011534,0.00060264,0.009527,-0.026527
188,-0.026527,-0.028669,-0.0065368,-0.080787,0.00060264,0.052721,0.010955,0.008813,-0.023315,-0.031525
189,-0.028312,-0.030097,-0.0068938,-0.074719,0.0020305,0.044153,0.021307,0.0020305,-0.054014,-0.022958
190,-0.029383,-0.031168,0.018451,-0.069364,-0.028312,0.029874,0.022021,-0.0072508,-0.035452,-0.015461
191,-0.032596,-0.032239,0.018808,-0.026884,-0.054728,0.023092,0.024877,-0.0079647,0.00060264,-0.024029
192,-0.029026,-0.031525,-0.021887,-0.041877,-0.059369,0.0048863,0.029161,-0.0022532,-0.0029671,-0.041163
193,-0.030454,-0.029383,-0.046875,0.018094,-0.042948,-0.032953,0.028447,-0.0018962,-0.027241,-0.037237
194,-0.027955,-0.031882,-0.047589,0.07164,-0.034381,-0.07579,0.01274,-0.0051089,-0.051873,-0.024743
195,-0.023315,-0.024386,-0.086499,-0.004395,-0.015104,-0.097208,-0.0086787,-0.0079647,-0.069007,-0.021887
196,-0.027241,-0.021173,-0.056513,0.015953,0.0031015,-0.051873,-0.025099,-0.0086787,-0.04866,-0.028669
197,-0.031882,-0.028669,-0.0058229,0.047366,0.010241,-0.0061799,-0.014747,-0.011891,-0.023315,-0.034381
198,-0.032596,-0.031525,0.0031015,-0.0065368,0.023449,0.048437,-0.0033241,-0.013676,-0.0079647,-0.019031
199,-0.022958,-0.030097,0.010955,-0.04866,-0.013676,0.060217,0.0041724,-0.021887,-0.013676,-0.0011822
200,-0.02617,-0.025813,-0.018674,-0.00046829,-0.062939,0.011669,0.0084561,-0.037951,-0.023315,-0.0065368
201,-0.032953,-0.027955,-0.0054659,0.10698,-0.10542,-0.018674,0.014168,-0.040092,-0.029383,-0.017603
202,-0.034024,-0.023672,0.0048863,0.065929,-0.11149,0.013454,0.018451,-0.015818,-0.025813,-0.039021
203,-0.029026,-0.015104,-0.016889,-0.021173,-0.055085,-0.023672,0.020593,0.010241,-0.0065368,-0.052229
204,-0.024386,-0.011178,-0.0029671,-0.028312,0.03987,-0.040092,0.020593,0.012026,-0.0065368,-0.045804
205,-0.028669,-0.02153,-0.0029671,0.0045293,0.065572,-0.034024,0.016666,0.013097,-0.010107,-0.054014
206,-0.027241,-0.028312,0.017023,0.064501,-0.25963,-0.049017,0.018094,0.020593,-0.0093926,-0.050802
207,-0.02974,-0.023672,0.02095,0.1184,-0.97965,-0.10863,0.016666,0.0070282,-0.004038,-0.029383
208,-0.031525,-0.020816,-0.021887,0.086276,-0.15397,-0.1968,0.01738,0.011312,0.0066712,-0.015818
209,-0.031882,-0.022601,-0.0076078,0.031659,0.68742,-0.0083217,0.010598,0.009527,0.015239,0.010955
210,-0.032596,-0.023315,0.0013166,-0.026884,0.3333,0.078423,-0.0022532,0.0045293,0.0020305,0.010955
211,-0.03331,-0.029026,-0.012248,-0.068293,-0.37172,0.060574,-0.0058229,-0.0036811,-0.021173,-0.0015392
212,-0.034738,-0.029383,-0.0029671,-0.051516,-0.14469,0.049151,0.00024566,-0.0054659,-0.038308,-0.016889
213,-0.028312,-0.031882,-0.016889,0.033444,0.47502,0.021307,0.0056003,0.0077421,-0.049017,-0.030097
214,-0.01796,-0.030811,-0.061868,0.039156,0.4329,-0.004752,0.0077421,0.015596,-0.033667,-0.030097
215,-0.017603,-0.030097,-0.029383,-0.0076078,0.26369,-0.039378,0.014525,-0.0026101,-0.023315,-0.025099
216,-0.025099,-0.029026,0.0023875,-0.0054659,0.039513,-0.086856,0.015239,-0.0065368,-0.020459,-0.018674
217,-0.027241,-0.020102,0.0020305,-0.0093926,-0.44954,-0.11434,0.00917,-0.013676,-0.017246,-0.019388
218,-0.026527,-0.0061799,0.0041724,-0.037237,-0.47631,0.024877,-0.0018962,-0.022601,-0.0018962,-0.018674
219,-0.023315,-0.0083217,0.01274,-0.044733,0.022378,0.20194,-0.0015392,-0.011891,0.0020305,-0.011891
220,-0.021887,-0.019745,0.025234,0.0034584,0.50643,0.1591,-0.00011131,-0.004038,0.0020305,-0.0072508
221,-0.015104,-0.027955,0.018094,0.0016736,0.40862,-0.025099,-0.013676,-0.011178,-0.0097496,-0.0086787
222,-0.013676,-0.024743,0.0041724,-0.0033241,0.13375,-0.037951,-0.027955,-0.020459,-0.02617,-0.0051089
223,-0.019388,-0.021173,0.0020305,0.027019,-0.087927,0.011669,-0.027955,-0.020102,-0.022244,-0.0068938
224,-0.019031,-0.025456,-0.015104,-0.070435,-0.014033,0.022378,-0.014747,-0.015104,-0.0097496,-0.011178
225,-0.019745,-0.025099,-0.0090357,0.018808,0.087347,-0.01439,0.00024566,-0.011891,-0.016175,-0.012605
226,-0.023672,-0.027955,0.021307,0.10484,0.076638,-0.025813,0.0034584,-0.014747,-0.031882,-0.018674
227,-0.026527,-0.035809,0.025948,0.036657,0.0041724,-0.012962,0.009884,-0.013319,-0.059726,-0.02153
228,-0.023672,-0.035452,0.025948,-0.02617,-0.04866,0.023449,0.013097,-0.0079647,-0.071863,-0.023315
229,-0.013676,-0.030454,0.008813,-0.01796,-0.052943,0.049151,0.015239,-0.004752,-0.053657,-0.019745
230,-0.0061799,-0.02617,-0.037594,-0.0086787,-0.071149,0.025234,0.010241,-0.0036811,-0.028669,-0.018674
231,-0.0090357,-0.022244,-0.063296,-0.077932,-0.097922,0.012383,0.0084561,-0.0033241,-0.011178,-0.021173
232,-0.02153,-0.021887,-0.039378,-0.059726,-0.086142,0.018094,0.0073851,-0.0033241,0.0052433,-0.018317
233,-0.020816,-0.024743,-0.018674,0.018808,-0.072934,0.0073851,0.0052433,-0.0051089,0.0048863,-0.018317
234,-0.013319,-0.020102,-0.0079647,-0.062225,-0.050802,-0.029026,0.0063142,-0.004038,-0.0065368,-0.022958
235,-0.017246,-0.022244,-0.019031,-0.0093926,-0.055442,-0.054014,0.0063142,-0.0033241,-0.0086787,-0.019388
236,-0.021173,-0.023672,-0.011178,0.067714,-0.068293,-0.070792,0.0070282,-0.0058229,-0.0029671,-0.019745
237,-0.019388,-0.023315,-0.024029,0.00917,-0.067936,-0.065795,0.013811,-0.0015392,0.0013166,-0.019745
238,-0.023315,-0.033667,-0.020459,0.080565,-0.072934,-0.063296,0.014882,-0.0033241,-0.004395,-0.022601
239,-0.030454,-0.032596,0.0056003,0.097343,-0.12577,-0.091497,0.017737,-0.0029671,-0.0072508,-0.021173
240,-0.034738,-0.02617,-0.0061799,0.029161,-0.13148,-0.04866,0.022735,-0.00046829,0.0023875,-0.022601
241,-0.034381,-0.021887,0.009884,-0.013319,-0.084357,0.047009,0.0363,0.00095961,-0.011891,-0.025813
242,-0.025099,-0.025099,-0.0022532,0.014168,-0.40813,0.13411,0.034515,-0.00082526,-0.06401,-0.024386
243,-0.03688,-0.023672,-0.029026,0.05522,-0.65373,0.1309,0.01738,-0.0026101,-0.11149,-0.022244
244,-0.040092,-0.019388,-0.016175,0.0048863,-0.14754,0.078066,-0.0072508,-0.0022532,-0.10185,-0.016175
245,-0.022958,-0.025456,-0.012248,-0.038308,0.30724,0.10056,-0.025099,0.0013166,-0.039735,-0.015461
246,-0.01796,-0.031168,-0.015104,-0.035452,0.53285,0.028804,-0.028669,-0.00011131,0.017023,-0.017246
247,-0.029383,-0.030811,-0.0054659,-0.017603,0.40612,-0.026884,-0.022958,-0.004038,0.03987,-0.015461
248,-0.025456,-0.031525,-0.004395,0.010598,0.18516,-0.051873,0.0013166,-0.0076078,0.028804,-0.016532
249,-0.027598,-0.026884,0.0023875,0.0038154,0.076995,-0.061511,0.02095,-0.0086787,0.0016736,-0.02153
250,-0.027955,-0.03331,0.0048863,-0.014747,0.038085,-0.11042,0.00095961,-0.0036811,-0.004395,-0.024743
251,-0.029026,-0.033667,0.011312,-0.0054659,0.013454,-0.16468,-0.039735,-0.0033241,-0.0054659,-0.026884
252,-0.032953,-0.02974,0.054149,0.0016736,0.0020305,-0.14147,-0.038308,-0.00046829,-0.011891,-0.027241
253,-0.027241,-0.024386,0.054863,0.017737,0.0016736,-0.031168,-0.012962,0.0073851,-0.012962,-0.025813
254,-0.027598,-0.020459,0.033087,0.035586,-0.076147,0.096629,0.015239,0.0034584,-0.014033,-0.025456
255,-0.031882,-0.027241,-0.014033,0.039156,-0.63874,0.010241,0.023806,0.00095961,-0.021887,-0.025813
256,-0.029026,-0.025813,-0.070792,0.010955,-1.5958,-0.092568,0.0059572,-0.00011131,-0.036523,-0.028312
257,-0.028669,-0.027598,-0.027598,-0.020459,-0.81651,0.028447,-0.019388,-0.00046829,-0.052586,-0.027241
258,-0.030454,-0.031168,-0.0011822,-0.034024,0.97514,0.223,-0.022244,-0.004038,-0.040449,-0.023315
259,-0.01796,-0.027955,-0.013319,-0.038308,1.2721,0.19194,0.0023875,-0.004038,-0.016175,-0.029026
260,-0.016889,-0.022601,-0.0086787,-0.035809,0.86769,-0.025099,0.016309,0.00060264,-0.022958,-0.032953
261,-0.02617,-0.022601,-0.018674,0.00024566,0.41576,-0.024386,0.017023,-0.0018962,-0.034738,-0.025456
262,-0.026884,-0.023315,-0.021887,0.037371,0.14304,0.047009,0.024877,-0.0068938,-0.033667,-0.018674
263,-0.032239,-0.025099,-0.004752,0.012026,0.027733,0.061288,0.020593,-0.0061799,-0.061154,-0.011534
264,-0.031525,-0.026884,-0.012962,0.0077421,0.018808,0.018094,0.023806,-0.010107,-0.088998,-0.0090357
265,-0.024386,-0.025456,-0.00082526,0.00024566,0.046652,-0.039021,0.030945,-0.01439,-0.09578,-0.0090357
266,-0.026527,-0.025099,0.027019,-0.0065368,0.0080991,-0.069007,0.038442,-0.019031,-0.059369,-0.0022532
267,-0.035809,-0.025099,0.025591,0.0034584,-0.054371,-0.047232,0.057005,-0.016175,-0.022958,-0.0061799
268,-0.036166,-0.024386,0.011312,0.01274,-0.1197,0.038799,0.065929,-0.0076078,-0.0065368,-0.0090357
269,-0.027241,-0.028312,0.0020305,0.0059572,-0.15539,0.096629,0.060217,-0.010107,0.021307,-0.015818
270,-0.027241,-0.030454,-0.01439,-0.015461,-0.13255,0.089489,0.039513,-0.0058229,0.052007,-0.030811
271,-0.027598,-0.033667,0.0048863,-0.030097,-0.062225,0.0016736,-0.0083217,-0.00011131,0.04451,-0.036166
272,-0.02974,-0.034381,0.033801,-0.057941,-0.042948,-0.033667,-0.073291,0.0052433,0.017737,-0.03331
273,-0.028312,-0.030454,-0.0083217,-0.056156,-0.059726,-0.0090357,-0.10506,0.017737,0.009527,-0.027955
274,-0.028312,-0.028669,-0.086142,-0.0090357,-0.084714,-0.0076078,-0.075433,0.014882,0.020236,-0.027598
275,-0.02974,-0.026527,-0.081501,0.033087,-0.095423,-0.056513,-0.0086787,0.022735,-0.0068938,-0.030811
276,-0.036166,-0.022958,-0.05687,0.050579,-0.12612,-0.095066,0.044867,0.01274,-0.058298,-0.035452
277,-0.029026,-0.022601,-0.037594,0.009527,-0.11077,-0.074362,0.064858,-0.0015392,-0.054728,-0.038664
278,-0.022958,-0.02153,-0.0090357,0.0063142,-0.091497,0.00095961,0.054506,-0.0029671,-0.017603,-0.044733
279,-0.024386,-0.02153,-0.014033,0.068071,-0.097565,0.020236,0.011669,-0.0026101,0.00095961,-0.040092
280,-0.020102,-0.019388,-0.0022532,0.046652,-0.23786,-0.042591,-0.045447,-0.011534,-0.0036811,-0.031525
281,-0.017603,-0.021887,0.0041724,0.012383,-0.6191,-0.044376,-0.07222,-0.015818,-0.024029,-0.025813
282,-0.019388,-0.018674,0.010955,0.029874,-0.24143,-0.019745,-0.062582,-0.011891,-0.03331,-0.020816
283,-0.01796,-0.02153,0.013454,0.0020305,0.3333,0.0080991,-0.034738,-0.011891,-0.030811,-0.017246
284,-0.016532,-0.026527,0.009527,-0.012248,0.37471,0.028447,-0.0065368,-0.01796,-0.031168,-0.015818
285,-0.018317,-0.027241,0.0027445,0.024877,0.20443,-0.004395,0.014168,-0.020102,-0.023672,-0.015104
286,-0.025456,-0.025813,0.0077421,0.027019,0.073782,-0.010464,0.025234,-0.017246,-0.016889,-0.011534
287,-0.026884,-0.026884,0.012383,-0.054014,0.050936,0.011312,0.024163,-0.013319,-0.029383,-0.011534
288,-0.024743,-0.029026,0.021307,-0.10042,-0.0061799,0.019522,0.018808,-0.0083217,-0.048303,-0.015818
289,-0.023315,-0.02153,0.02809,-0.049017,-0.016175,0.028447,0.021307,-0.0026101,-0.017603,-0.015104
290,-0.019388,-0.024029,-0.0033241,-0.0086787,-0.037237,0.036657,0.018451,-0.0018962,-0.0036811,-0.014033
291,-0.024386,-0.029383,-0.01439,-0.015104,-0.014033,0.02809,0.013454,-0.00082526,-0.041877,-0.013319
292,-0.02617,-0.027598,0.011669,-0.0079647,0.0063142,-0.01439,0.015953,-0.0054659,-0.088284,-0.011891
293,-0.02153,-0.024743,-0.0026101,-0.031882,0.027019,-0.075076,0.014882,-0.0072508,-0.10792,-0.017603
294,-0.022601,-0.02617,-0.020459,-0.078646,-0.021887,-0.14183,0.021664,-0.0061799,-0.083643,-0.019745
295,-0.015461,-0.02617,-0.023672,-0.037237,-0.092211,-0.19502,0.024163,-0.011178,-0.028312,-0.014033
296,-0.010464,-0.023315,-0.039735,0.10341,-0.051516,-0.19645,0.014525,0.0031015,0.0063142,-0.017603
297,-0.014033,-0.024029,-0.030097,0.2487,-0.015461,-0.049731,0.015239,0.0073851,-0.0033241,-0.015818
298,-0.0097496,-0.03331,0.0038154,0.19194,-0.029383,0.19123,0.015239,-0.0036811,-0.0061799,-0.011178
299,-0.0072508,-0.030811,-0.0079647,-0.00046829,0.033087,0.24834,0.0077421,-0.0054659,0.016666,-0.0093926
300,-0.0097496,-0.030454,-0.017246,-0.04866,0.086633,0.076281,-0.0036811,-0.012248,0.034158,0.0034584
301,-0.013319,-0.035095,-0.023672,0.035229,0.037371,-0.0090357,-0.010464,-0.016175,0.028804,0.014168
302,-0.012605,-0.024386,-0.017603,0.048794,0.02452,-0.021887,-0.0090357,-0.021887,0.031659,0.008813
303,-0.013676,-0.01796,-0.0015392,0.022378,0.013811,-0.020102,-0.0015392,-0.016175,0.019165,-0.0054659
304,-0.015461,-0.023672,-0.0097496,-0.019031,-0.012605,0.014882,0.00095961,-0.0058229,-0.00011131,-0.01796
305,-0.018317,-0.018674,-0.0011822,-0.074719,-0.019031,0.040941,0.0073851,0.0059572,-0.0093926,-0.041163
306,-0.024743,-0.018674,0.022378,-0.015104,-0.026884,0.02095,0.013811,0.011312,-0.012248,-0.049374
307,-0.025813,-0.021173,0.024877,0.046652,-0.11898,-0.0026101,0.016309,0.012383,-0.0090357,-0.042234
308,-0.031882,-0.023672,0.019165,0.0080991,-0.4806,-0.026527,0.01274,0.01274,-0.014033,-0.034381
309,-0.027955,-0.025813,-0.014033,-0.0054659,-0.65195,-0.057227,0.015953,0.0052433,-0.015818,-0.027241
310,-0.026527,-0.02153,-0.036166,-0.012962,0.12197,-0.063653,0.021307,-0.010107,-0.018317,-0.039735
311,-0.024386,-0.014033,-0.011891,-0.057584,0.56069,-0.053657,0.018094,-0.014033,-0.022958,-0.072934
312,-0.026527,-0.015818,-0.040449,-0.067222,0.39363,0.015239,0.012383,0.0031015,-0.028669,-0.066508
313,-0.030811,-0.013676,-0.051873,-0.031882,0.14482,0.13911,0.0041724,0.0038154,-0.028312,-0.045447
314,-0.03688,-0.015104,-0.0029671,0.01738,-0.03688,0.076638,-0.0026101,-0.0036811,-0.022958,-0.023672
315,-0.033667,-0.012248,-0.012962,0.072711,-0.19787,0.012383,-0.010107,-0.0026101,-0.018674,-0.0054659
316,-0.029026,-0.0097496,0.0041724,-0.031882,0.056291,0.023806,-0.016532,-0.0015392,-0.023672,-0.010107
317,-0.031882,-0.018317,-0.0022532,-0.082929,0.28618,-0.0036811,-0.025813,-0.00011131,-0.037594,-0.004395
318,-0.027241,-0.019745,-0.0018962,0.013454,0.2105,-0.0018962,-0.020102,0.00095961,-0.055442,0.00024566
319,-0.031882,-0.015461,-0.0018962,-0.012962,0.11412,-0.042234,-0.0011822,0.00060264,-0.061511,-0.0018962
320,-0.03331,-0.029383,0.0052433,-0.010107,0.023449,-0.1122,0.0084561,0.00060264,-0.039021,-0.023672
321,-0.031882,-0.030811,0.020236,0.0052433,-0.0076078,-0.13398,0.016309,0.00024566,-0.013319,-0.046518
322,-0.037594,-0.040449,0.0070282,0.054863,-0.046161,-0.044019,0.024163,0.0038154,-0.023672,-0.049731
323,-0.034024,-0.032239,-0.019388,0.058432,-0.15789,0.065929,0.013811,0.0013166,-0.052229,-0.04152
324,-0.031168,-0.032596,-0.03331,0.023449,-0.57056,0.11412,-0.0061799,-0.0036811,-0.0533,-0.027241
325,-0.034381,-0.020816,-0.023315,0.023092,-1.1778,0.0073851,-0.022958,-0.0015392,-0.047946,-0.024386
326,-0.042234,-0.020102,-0.022958,0.020593,-0.88755,-0.059369,-0.02617,-0.0022532,-0.049374,-0.02153
327,-0.03331,-0.032953,-0.0033241,0.013811,0.84949,0.0080991,-0.010107,-0.0079647,-0.035452,-0.011891
328,-0.034024,-0.032239,0.00095961,0.02095,1.0501,0.022735,-0.0036811,-0.0093926,-0.0011822,-0.0065368
329,-0.032239,-0.030097,-0.0068938,0.0063142,0.65922,-0.017603,0.0020305,-0.014033,0.014168,0.0023875
330,-0.028312,-0.027241,0.00095961,-0.014747,0.36757,-0.014747,0.0048863,-0.014747,0.0070282,0.0080991
331,-0.031168,-0.039378,0.010241,-0.041163,0.16338,-0.022244,0.011669,-0.0061799,0.0056003,0.0056003
332,-0.03331,-0.045804,0.0027445,-0.058655,0.076995,-0.013676,0.014168,0.00095961,0.0077421,-0.0015392
333,-0.040449,-0.038308,0.0063142,-0.050088,0.052364,0.02095,0.015596,-0.0018962,-0.00046829,-0.011178
334,-0.042948,-0.039021,-0.0097496,-0.054371,0.0052433,0.053435,0.015953,-0.0083217,0.00095961,-0.012962
335,-0.037951,-0.023672,-0.016532,-0.087927,-0.030811,0.057718,0.01738,-0.0086787,0.0020305,-0.010107
336,-0.036166,-0.026527,-0.011534,-0.10078,-0.045447,0.017023,0.023806,0.0048863,-0.0076078,0.0034584
337,-0.034738,-0.029026,-0.022601,0.010241,-0.072577,0.0020305,0.031659,0.010955,-0.014033,0.010955
338,-0.035809,-0.025813,-0.00082526,0.14696,-0.088284,-0.0022532,0.035586,0.011669,-0.020459,0.0045293
339,-0.033667,-0.030097,0.014882,0.20086,-0.097922,-0.022244,0.032016,0.0048863,-0.027598,-0.011891
340,-0.039735,-0.034024,0.031302,0.12376,-0.11756,-0.040449,0.022378,-0.0054659,-0.030454,-0.036166
341,-0.039735,-0.025813,0.039513,0.025948,-0.11577,-0.019388,0.017023,-0.012248,-0.040449,-0.062939
342,-0.035452,-0.030811,0.019165,0.00917,-0.1379,0.031302,0.0048863,-0.019388,-0.051516,-0.074005
343,-0.037237,-0.02974,-0.025099,-0.032596,-0.16325,0.037728,-0.022244,-0.017603,-0.034738,-0.07222
344,-0.027598,-0.027598,-0.035095,-0.027955,-0.12541,0.022378,-0.05687,-0.016889,-0.017246,-0.06044
345,-0.023315,-0.022601,-0.004038,-0.025456,-0.04152,0.040584,-0.062939,-0.010821,-0.00046829,-0.051159
346,-0.02617,-0.020102,0.016309,-0.18502,-0.032239,0.022021,-0.038308,-0.004395,0.0077421,-0.042234
347,-0.031882,-0.034738,0.029874,-0.16146,-0.078646,-0.061154,-0.0058229,-0.00011131,0.0016736,-0.021173
348,-0.031525,-0.036523,0.042369,0.048794,-0.12898,-0.13291,0.011312,-0.004038,-0.014033,-0.013319
349,-0.031525,-0.031168,0.010241,0.23513,-0.10328,-0.12505,0.027019,-0.0061799,-0.012248,-0.012248
350,-0.027598,-0.02617,-0.035095,0.19158,-0.031168,0.017737,0.030231,-0.004752,-0.0076078,-0.013676
351,-0.026884,-0.025813,-0.057227,0.026662,-0.0068938,0.098413,0.033801,-0.00046829,-0.01796,-0.013676
352,-0.031525,-0.024743,-0.084714,-0.050802,-0.012962,0.052007,0.042012,-0.00046829,-0.019745,-0.012248
353,-0.027955,-0.018674,-0.069007,-0.032953,-0.022601,0.009884,0.041655,-0.004752,-0.0076078,-0.010464
354,-0.027955,-0.031882,-0.051159,-0.0029671,0.0045293,0.026662,0.019879,-0.0029671,-0.0029671,-0.0097496
355,-0.026527,-0.034024,-0.013319,-0.011178,-0.04866,0.015239,-0.019388,-0.0072508,-0.0090357,-0.0036811
356,-0.021887,-0.025813,0.0077421,-0.004752,-0.10399,0.00095961,-0.051873,-0.0068938,-0.0079647,0.0027445
357,-0.021173,-0.024029,0.0052433,0.018808,-0.15968,-0.014747,-0.042948,-0.010464,-0.024029,0.0080991
358,-0.020459,-0.028312,0.00095961,0.040227,-0.39314,-0.024386,-0.021887,-0.011178,-0.02617,0.0084561
359,-0.025456,-0.024386,-0.0076078,-0.011891,-0.15896,0.009527,-0.0018962,-0.012248,0.0020305,0.0034584
360,-0.023315,-0.027955,-0.0029671,-0.059012,0.1516,0.022378,0.015239,-0.010821,0.0034584,-0.0018962
361,-0.020459,-0.024743,0.0063142,-0.077575,-0.026527,0.009527,0.020593,-0.0018962,-0.084,-0.014033
362,-0.024743,-0.021887,0.019522,-0.050445,-0.020102,-0.017603,0.018451,0.0059572,-0.12505,-0.032596
363,-0.019388,-0.029383,0.0080991,-0.011178,-0.14183,-0.055085,0.023092,0.019522,-0.083286,-0.050088
364,-0.0068938,-0.024386,-0.0090357,0.045224,0.1359,-0.040092,0.029161,0.025591,-0.037951,-0.052943
365,-0.0076078,-0.021887,-0.016175,0.038442,0.54963,-0.034738,0.033444,0.008813,0.014168,-0.047946
366,-0.018674,-0.022601,-0.027598,0.02095,0.41505,-0.096137,0.033444,-0.0026101,0.0073851,-0.043662
367,-0.020102,-0.024029,-0.010821,0.029874,0.16909,-0.028312,0.037014,0.0013166,-0.041163,-0.035452
368,-0.024386,-0.027955,0.0056003,0.02095,0.11483,0.14339,0.039156,0.0070282,-0.040449,-0.023315
369,-0.029026,-0.02617,0.0052433,0.011669,0.084135,0.1052,0.017023,0.015953,-0.0018962,-0.015818
370,-0.023315,-0.021887,0.031659,0.0041724,-0.040092,-0.045804,-0.032596,-0.00046829,0.0027445,-0.020459
371,-0.024029,-0.024386,0.053078,0.0052433,-0.28819,-0.02974,-0.055085,-0.0097496,0.012026,-0.026884
372,-0.026884,-0.021887,0.016309,0.0056003,-0.76868,-0.0029671,-0.030454,-0.020459,0.0013166,-0.020459
373,-0.023672,-0.021887,0.018808,0.012026,-0.28819,-0.004752,-0.0036811,-0.021173,-0.023672,-0.018674
374,-0.017603,-0.022601,-0.013319,0.01738,0.45075,-0.034024,0.015596,-0.004752,-0.021887,-0.019388
375,-0.016532,-0.019388,-0.044733,-0.020459,0.53214,-0.059012,0.022378,-0.0054659,-0.0036811,-0.025099
376,-0.018317,-0.025456,-0.010821,-0.064724,0.28868,-0.038308,0.0027445,-0.016175,-0.0026101,-0.023315
377,-0.019745,-0.023672,-0.059012,-0.024029,0.058075,0.0048863,-0.016889,-0.019745,-0.020102,-0.024386
378,-0.022244,-0.030454,-0.042591,0.031302,-0.02617,0.040584,-0.022958,-0.016889,-0.037594,-0.025456
379,-0.023315,-0.038664,-0.019031,0.050579,0.020593,0.021307,-0.0093926,-0.018317,-0.039021,-0.019745
380,-0.023315,-0.03688,-0.017246,0.020236,0.038085,0.016666,0.013454,-0.018317,-0.035095,-0.018317
381,-0.021887,-0.035095,-0.0061799,-0.0015392,-0.067579,0.014168,0.028804,-0.015818,-0.034738,-0.012962
382,-0.019388,-0.035809,-0.0076078,-0.0022532,-0.40385,0.0070282,0.039156,-0.010107,-0.037237,-0.013676
383,-0.01796,-0.029383,-0.0051089,-0.011891,-0.98465,0.021307,0.029874,-0.004395,-0.011534,-0.01439
384,-0.032596,-0.023672,0.0023875,-0.031525,-0.37636,0.025948,-0.0090357,-0.0086787,0.022021,-0.010464
385,-0.027955,-0.02617,0.00917,-0.033667,0.30439,0.013811,-0.035452,-0.019388,0.027733,-0.0079647
386,-0.019031,-0.027241,-0.0011822,-0.01439,0.6071,-0.0090357,-0.025099,-0.011891,-0.011534,-0.0061799
387,-0.025099,-0.023672,-0.0058229,0.0077421,0.49287,-0.027598,-0.0029671,-0.0036811,-0.0533,-0.0058229
388,-0.028669,-0.025456,-0.010464,0.017023,0.33259,-0.059726,0.0048863,0.00095961,-0.045447,-0.0090357
389,-0.030097,-0.024386,-0.0029671,0.014882,0.11769,-0.12505,0.0084561,0.00917,-0.025099,-0.0051089
390,-0.023315,-0.025099,0.0052433,0.019522,0.04451,-0.086499,0.0073851,0.0063142,-0.010464,0.00060264
391,-0.022601,-0.021887,0.0038154,0.027376,0.0045293,0.047009,0.0077421,0.0041724,-0.010821,0.0056003
392,-0.027598,-0.017246,0.013454,0.0020305,-0.038664,0.11662,0.015239,0.0084561,-0.0097496,0.00060264
393,-0.027598,-0.012248,0.047009,-0.011891,-0.086499,0.16231,0.017737,0.018451,-0.0090357,-0.0068938
394,-0.022601,-0.014747,0.078066,-0.016175,-0.083643,0.11555,0.022021,0.027376,-0.015818,-0.0076078
395,-0.022601,-0.0079647,0.066643,-0.052586,-0.025456,-0.030454,0.02095,0.018808,-0.018317,-0.014033
396,-0.028312,0.0048863,0.033801,-0.057584,-0.058298,-0.057584,0.022378,0.0016736,-0.017603,-0.034381
397,-0.025099,-0.0065368,-0.014033,0.0020305,-0.05687,-0.09114,0.02095,-0.00011131,-0.015104,-0.047946
398,-0.023672,-0.011534,-0.082929,0.056291,-0.074005,-0.096137,0.017737,-0.010464,-0.016175,-0.07222
399,-0.025099,-0.010107,-0.11648,0.026305,-0.084,-0.063653,0.019165,-0.010821,-0.015818,-0.08043
400,-0.031525,-0.013319,-0.065081,-0.04152,-0.10685,-0.084,0.01274,-0.0072508,-0.014033,-0.074362
401,-0.029026,-0.016889,-0.048303,-0.052229,-0.11791,-0.0051089,0.0077421,-0.0061799,-0.015818,-0.063296
402,-0.01796,-0.018674,-0.060797,0.068071,-0.10542,0.11769,0.0016736,-0.0022532,-0.022958,-0.052229
403,-0.018674,-0.024386,-0.039378,0.17052,-0.13469,0.064144,-0.00046829,-0.0015392,-0.0015392,-0.04866
404,-0.027598,-0.023315,-0.0065368,0.11162,-0.10149,-0.019031,-0.011178,-0.0083217,0.02452,-0.049017
405,-0.025813,-0.02617,0.012383,0.039156,-0.062582,-0.0072508,-0.020459,-0.004038,0.028804,-0.037237
406,-0.024743,-0.031168,0.0080991,0.026662,-0.10256,0.034515,-0.020459,0.0052433,-0.015461,-0.020816
407,-0.026884,-0.026527,0.0045293,0.0052433,-0.025813,0.018451,-0.0076078,0.0038154,-0.06044,-0.011178
408,-0.019388,-0.031525,-0.015818,-0.0061799,0.060217,-0.00011131,0.0038154,-0.0058229,-0.070435,-0.012962
409,-0.024029,-0.032239,-0.047946,-0.010464,0.010955,0.0063142,0.010955,-0.0029671,-0.045447,-0.012962
410,-0.023672,-0.036523,-0.035452,-0.028669,-0.048303,-0.004038,0.016309,-0.0090357,-0.020816,-0.0068938
411,-0.023672,-0.035809,-0.01796,-0.046161,-0.0022532,-0.0083217,0.0059572,-0.016532,0.0045293,-0.004038
412,-0.022601,-0.031882,0.010955,-0.066508,0.024877,-0.00046829,0.0048863,-0.021173,0.030588,0.0027445
413,-0.025099,-0.031882,0.025591,-0.10042,0.073782,0.0031015,0.0052433,-0.019031,-0.021887,0.0059572
414,-0.029383,-0.031168,0.038799,-0.076504,0.10127,0.015596,-0.0018962,-0.012248,-0.10792,0.0063142
415,-0.025456,-0.035809,0.034515,0.0020305,0.053435,0.027733,-0.0033241,-0.0083217,-0.10578,0.0038154
416,-0.025456,-0.032953,0.010598,0.12269,-0.02617,0.030588,0.0031015,-0.0083217,-0.057941,0.0016736
417,-0.028669,-0.037594,-0.0065368,0.11198,-0.22929,0.022021,0.012026,-0.0054659,-0.015461,-0.0015392
418,-0.022958,-0.033667,-0.02617,-0.02153,-0.38814,0.0034584,0.015596,-0.0076078,0.018451,-0.0018962
419,-0.01796,-0.031525,-0.025813,-0.015461,0.067357,0.00095961,0.0073851,-0.004038,0.02095,-0.0076078
420,-0.021887,-0.032596,-0.015461,0.011312,0.27155,-0.012605,-0.010821,-0.0022532,-0.017603,-0.012962
421,-0.020816,-0.027241,-0.015104,0.0023875,0.15624,-0.029383,-0.031882,-0.0054659,-0.029026,-0.0083217
422,-0.022244,-0.025099,0.0038154,-0.00046829,0.064858,-0.01439,-0.027241,-0.0026101,-0.03331,-0.0065368
423,-0.024029,-0.024029,0.0038154,-0.0054659,0.037728,0.0048863,-0.0086787,0.00095961,-0.031525,-0.0093926
424,-0.019388,-0.031525,0.016666,-0.004038,-0.017246,-0.0033241,-0.0079647,-0.004395,-0.016175,-0.012962
425,-0.020459,-0.02617,0.015596,-0.0061799,-0.26035,-0.037951,-0.0068938,-0.0072508,-0.004038,-0.018674
426,-0.027955,-0.021887,-0.022244,-0.0022532,-0.42313,-0.04509,-0.0072508,-0.0083217,0.00095961,-0.024743
427,-0.02153,-0.026884,-0.011178,-0.0083217,-0.32174,-0.0061799,0.0016736,-0.0011822,0.00024566,-0.02974
428,-0.016889,-0.034024,-0.0018962,-0.038308,0.3026,0.013454,0.022735,0.0041724,-0.0033241,-0.035095
429,-0.022244,-0.038664,0.009527,-0.0029671,0.515,-0.004038,0.047366,0.010598,-0.0086787,-0.040092
430,-0.024386,-0.035809,0.030945,0.031302,0.34116,0.0038154,0.053792,0.008813,-0.019745,-0.039021
431,-0.027241,-0.025099,0.023806,-0.021173,0.14232,0.030945,0.058075,-0.0022532,-0.018674,-0.03331
432,-0.02617,-0.02153,-0.0054659,-0.057941,0.0077421,0.049865,0.07057,-0.0011822,-0.02617,-0.028312
433,-0.029383,-0.016532,-0.049731,-0.094709,-0.17931,0.012383,0.095201,-0.0015392,-0.024386,-0.02153
434,-0.03331,-0.00011131,-0.072934,-0.10363,-0.14361,-0.044376,0.08699,-0.0026101,-0.020459,-0.020816
435,-0.034381,-0.0051089,-0.056156,-0.02974,-0.092568,-0.098636,0.0016736,-0.0090357,-0.014033,-0.024386
436,-0.024743,-0.014747,-0.027955,0.13304,0.059146,-0.13005,-0.087213,-0.012962,0.037728,-0.025456
437,-0.020459,-0.011891,-0.012962,0.13482,0.14875,-0.10863,-0.071506,-0.014033,0.051293,-0.020459
438,-0.030454,-0.018674,-0.020459,0.056291,0.041298,-0.067222,-0.023672,-0.015104,-0.0090357,-0.01439
439,-0.037594,-0.036523,-0.0029671,0.034158,-0.38422,-0.040806,-0.060083,-0.012248,-0.047232,-0.01439
440,-0.034381,-0.042591,-0.0036811,-0.011534,-0.57805,0.055934,-0.12005,-0.012962,-0.044019,-0.018674
441,-0.034381,-0.03688,0.0023875,-0.0058229,0.12162,0.07164,-0.11613,-0.014033,-0.037951,-0.020459
442,-0.02153,-0.030811,0.009884,0.0052433,0.34365,0.034158,-0.048303,-0.0083217,-0.036166,-0.018674
443,-0.013319,-0.034738,0.0045293,0.0038154,0.17017,0.063073,-0.00046829,-0.0029671,-0.034738,-0.02153
444,-0.024029,-0.034738,0.0034584,0.036657,0.015239,0.086633,0.028804,0.0023875,-0.041163,-0.030454
445,-0.028669,-0.029383,0.008813,0.064858,0.030945,0.013097,0.037371,-0.0018962,-0.04152,-0.031882
446,-0.022958,-0.031882,0.0016736,0.0045293,0.17481,-0.039735,0.030231,-0.0026101,-0.012962,-0.027241
447,-0.022244,-0.027598,-0.0065368,-0.023315,0.0077421,-0.0093926,0.026662,0.0023875,-0.0076078,-0.02153
448,-0.024386,-0.029383,0.008813,-0.0090357,-0.87934,0.0027445,0.025948,0.0073851,-0.015461,-0.015461
449,-0.024743,-0.029026,0.043083,-0.012605,-0.5752,-0.010107,0.025591,0.015596,-0.030097,-0.019745
450,-0.027955,-0.030454,0.061288,-0.00046829,0.64173,-0.054728,0.025948,0.0073851,-0.035809,-0.030454
451,-0.028669,-0.032596,0.068071,0.022021,0.69492,-0.1222,0.033087,-0.0090357,-0.031168,-0.034738
452,-0.031168,-0.026527,0.052007,0.044153,0.36008,-0.16325,0.037014,-0.0072508,-0.018317,-0.037951
453,-0.027598,-0.016175,0.0070282,0.024163,0.097343,-0.019031,0.042369,-0.0086787,-0.0076078,-0.039021
454,-0.022244,-0.026884,-0.034381,0.014882,-0.10399,0.21657,0.049865,-0.015818,0.0056003,-0.037594
455,-0.027955,-0.032239,-0.097208,0.048794,-0.62232,0.17266,0.065215,-0.015461,0.0034584,-0.026527
456,-0.029026,-0.026884,-0.11149,-0.024386,-0.45347,0.058075,0.067357,-0.0051089,-0.025099,-0.029026
457,-0.031525,-0.024386,-0.049374,-0.10792,0.12626,0.069142,0.037014,-0.004038,-0.022601,-0.031882
458,-0.027241,-0.020102,-0.014033,-0.12826,0.40969,0.025948,-0.0076078,0.0023875,-0.0036811,-0.027241
459,-0.021173,-0.022601,0.0052433,-0.088284,0.34722,0.023092,-0.018317,0.0031015,-0.0086787,-0.028669
460,-0.024743,-0.028312,0.011312,0.013097,0.1334,0.029161,-0.026527,0.00095961,-0.012962,-0.031525
461,-0.017603,-0.032953,0.016666,0.072354,0.024877,0.020593,-0.07579,0.0023875,-0.025813,-0.024029
462,-0.021173,-0.02617,0.009527,0.096272,-0.020459,-0.010464,-0.093638,0.0052433,-0.039735,-0.017246
463,-0.030097,-0.028669,-0.013319,0.070926,-0.10435,-0.01439,-0.057584,-0.0011822,-0.027598,-0.015461
464,-0.032239,-0.02974,-0.014033,-0.004395,-0.12791,0.0045293,-0.0083217,-0.0033241,-0.028312,-0.012248
465,-0.032596,-0.034381,-0.025099,-0.035809,-0.10435,-0.013676,0.016309,-0.0093926,-0.049017,-0.010821
466,-0.031168,-0.032596,0.015953,-0.038664,-0.11613,-0.090069,0.026305,-0.0086787,-0.052229,-0.0086787
467,-0.025099,-0.025099,0.025948,0.04344,-0.37101,-0.13219,0.025948,-0.0076078,-0.043305,-0.011178
468,-0.020459,-0.018674,-0.049731,0.094487,-0.17467,-0.13005,0.023449,-0.0061799,-0.027598,-0.0097496
469,-0.027598,-0.004395,-0.061868,0.067357,0.25084,-0.019745,0.014525,-0.0026101,-0.004752,-0.0072508
470,-0.021887,-0.020816,0.00024566,0.028804,0.18195,0.053792,0.0041724,-0.0022532,0.010598,-0.0068938
471,-0.013676,-0.02617,0.00917,-0.004395,0.087704,0.025591,0.0034584,-0.004038,0.0080991,-0.0036811
472,-0.016532,-0.019388,0.0048863,-0.016889,-0.017603,0.015953,0.00095961,-0.010107,-0.0029671,-0.0011822
473,-0.019388,-0.026527,-0.019031,-0.025099,-0.025813,0.010598,0.0059572,-0.011178,-0.011891,-0.0072508
474,-0.019388,-0.025099,-0.044733,-0.019388,-0.031168,0.0038154,0.01274,-0.004752,-0.036523,-0.016175
475,-0.023672,-0.026884,-0.049374,-0.0015392,-0.025813,0.0023875,0.014525,-0.0033241,-0.040806,-0.020816
476,-0.032953,-0.022601,-0.016889,0.0056003,-0.0068938,-0.0033241,0.018451,-0.0086787,-0.016532,-0.02617
477,-0.026884,-0.020816,0.0084561,0.00060264,-0.046875,-0.0036811,0.022378,-0.013319,-0.010464,-0.02617
478,-0.030454,-0.011534,0.0034584,-0.0076078,-0.046161,-0.0076078,0.02452,-0.0079647,-0.047232,-0.024029
479,-0.025099,-0.019745,0.0031015,-0.011178,-0.043662,-0.0058229,0.025591,-0.0026101,-0.088641,-0.037237
480,-0.026884,-0.018674,0.0013166,-0.010821,-0.092925,-0.0079647,0.022021,-0.0026101,-0.1072,-0.04866
481,-0.030454,-0.02153,0.0027445,-0.012605,-0.18217,-0.0061799,0.016666,-0.004038,-0.077575,-0.0533
482,-0.030811,-0.019745,0.00024566,-0.010107,-0.27677,0.0059572,0.019165,-0.0029671,-0.046875,-0.035452
483,-0.024386,-0.022244,-0.00046829,-0.0072508,-0.17217,0.024877,0.021664,-0.0011822,-0.0033241,-0.022244
484,-0.016889,-0.03688,-0.011178,-0.0065368,0.15731,0.030231,0.019522,0.0045293,0.029518,-0.013319
485,-0.016532,-0.037951,0.0020305,-0.0061799,0.24299,0.023092,0.020236,0.0066712,0.025591,-0.010107
486,-0.022601,-0.035095,0.013811,-0.020459,0.10341,0.021664,0.019522,0.011312,0.017023,-0.013676
487,-0.028312,-0.03688,0.0052433,-0.012248,-0.087213,0.034872,0.02095,0.008813,0.020593,-0.015104
488,-0.026527,-0.032596,-0.00011131,0.013811,-0.25713,0.03273,0.018451,-0.0022532,0.038799,-0.010464
489,-0.030454,-0.030454,-0.016532,0.0077421,-0.16325,0.018094,-0.004752,-0.0033241,0.02095,-0.013676
490,-0.031882,-0.024029,0.00024566,-0.037951,0.038085,-0.0033241,-0.037594,0.0063142,-0.0051089,-0.016889
491,-0.049374,-0.01439,0.0066712,-0.087213,0.032373,-0.032239,-0.067936,0.00095961,0.011669,-0.016532
492,-0.050802,-0.016532,0.0080991,-0.061868,-0.31496,-0.032596,-0.06401,-0.0033241,0.012026,-0.01796
493,-0.022601,-0.015461,-0.010107,0.027019,0.044153,-0.040806,-0.034381,-0.0036811,0.0052433,-0.021173
494,-0.0018962,-0.019031,-0.041877,0.027376,0.45896,-0.061511,-0.0086787,-0.0097496,-0.016889,-0.024386
495,0.010598,-0.026884,-0.028312,0.00095961,0.1973,-0.050445,0.0031015,-0.015818,-0.034381,-0.02617
496,-0.0018962,-0.037594,-0.0061799,0.016309,0.072711,-0.019388,0.0023875,-0.0076078,-0.031525,-0.026884
497,-0.020102,-0.027955,-0.020816,-0.020459,-0.019388,0.027376,-0.0026101,0.00095961,-0.0068938,-0.025456
498,-0.02153,-0.023315,-0.016889,-0.050088,-0.06044,0.0070282,-0.004038,-0.0068938,-0.016175,-0.020102
499,-0.022958,-0.022958,-0.022601,0.015953,0.04451,-0.093281,0.00060264,-0.0083217,-0.035095,-0.021173
500,-0.015461,-0.022601,-0.024386,0.14161,0.15589,-0.070792,0.008813,-0.0058229,-0.039378,-0.021173
501,-0.028312,-0.024029,-0.0051089,0.19444,0.11126,0.0016736,0.014882,-0.0051089,-0.02153,-0.020816
502,-0.044376,-0.025813,0.012383,0.11555,-0.038664,0.11947,0.018451,-0.0018962,-0.020102,-0.018317
503,-0.039378,-0.028312,0.0045293,0.027733,-0.34459,0.079137,0.020236,-0.0033241,-0.028312,-0.016532
504,-0.042591,-0.024386,0.0084561,0.013454,-0.68907,0.016309,0.021307,-0.0090357,-0.024386,-0.014747
505,-0.057584,-0.024386,0.012383,0.00024566,-0.053657,-0.004395,0.019522,-0.010464,-0.026884,-0.010821
506,-0.047589,-0.031168,0.025948,-0.019745,0.42362,-0.050802,0.019522,-0.012248,-0.022244,-0.0076078
507,-0.030097,-0.040449,0.028447,-0.0090357,0.30903,-0.061154,0.018451,-0.013319,-0.016532,-0.012962
508,-0.011891,-0.04152,0.012026,-0.023315,0.095558,-0.013676,0.023092,-0.013676,-0.014033,-0.017603
509,-0.010464,-0.035452,0.017023,-0.032596,-0.70585,0.069856,0.025234,-0.011178,-0.018674,-0.025456
510,-0.022244,-0.027241,0.023092,-0.020102,-0.37672,0.049865,0.022378,-0.0015392,-0.01796,-0.035809
511,-0.029383,-0.024743,-0.00046829,-0.030097,0.60639,0.018808,0.019879,0.0031015,-0.011891,-0.032239
512,-0.029383,-0.025813,0.015953,-0.042234,0.6478,0.012026,0.01738,-0.0033241,-0.02153,-0.022244
513,-0.02153,-0.029383,0.03273,-0.053657,0.50251,0.0059572,0.015596,-0.0054659,-0.022958,-0.019388
514,-0.023672,-0.027598,-0.0068938,-0.040449,0.19872,0.029874,-0.0026101,-0.004752,-0.020102,-0.0083217
515,-0.02617,-0.027241,-0.03688,0.00095961,0.047009,0.034158,-0.03331,-0.0086787,-0.031882,-0.0015392
516,-0.033667,-0.027955,-0.096137,0.036657,0.0020305,0.024877,-0.032953,0.0070282,-0.069721,-0.012605
517,-0.039735,-0.01439,-0.098636,-0.023672,-0.047946,0.0073851,-0.0011822,0.0052433,-0.057941,-0.039378
518,-0.031168,-0.0076078,-0.044019,-0.08043,-0.071506,-0.026527,0.030588,-0.0086787,-0.032953,-0.056513
519,-0.025813,-0.00046829,-0.0076078,0.0084561,-0.11042,-0.081144,0.050222,-0.0061799,0.014168,-0.062582
520,-0.032239,-0.0036811,0.0031015,0.10591,-0.18574,-0.16432,0.031659,-0.0015392,0.057718,-0.043305
521,-0.044019,-0.013319,0.00024566,0.11876,-0.27891,-0.15218,-0.023315,-0.0011822,0.0066712,-0.028312
522,-0.065081,-0.020459,-0.019031,0.085562,-0.50309,-0.0083217,-0.065438,-0.004038,-0.06865,-0.028669
523,-0.046875,-0.024386,-0.031882,0.04451,-0.10685,0.060931,-0.038308,-0.004752,-0.073648,-0.020816
524,-0.019031,-0.021887,-0.035452,0.035943,0.2694,0.010598,0.0070282,-0.0090357,-0.024743,-0.0093926
525,-0.0086787,-0.024386,-0.054728,-0.0086787,0.14018,0.10341,0.039156,-0.012248,0.00917,-0.010107
526,-0.00046829,-0.023672,-0.034738,-0.055799,-0.32032,0.10091,0.050579,-0.011534,-0.010821,-0.02617
527,0.0041724,-0.025813,-0.011534,-0.069007,-0.2275,0.031302,-0.0026101,-0.010464,-0.065795,-0.03331
528,-0.015104,-0.031168,-0.004395,-0.035452,0.23121,0.045581,-0.062582,-0.0058229,-0.085428,-0.025099
529,-0.023315,-0.03688,0.00060264,0.009884,0.25334,0.03273,-0.042948,-0.0029671,-0.052229,-0.019745
530,-0.024029,-0.037594,0.00917,0.0016736,0.10734,0.029518,-0.0018962,-0.00011131,-0.011891,-0.013676
531,-0.02974,-0.034738,0.01738,-0.029026,-0.017246,0.01274,-0.023315,0.00095961,0.0027445,-0.010107
532,-0.026884,-0.030454,0.019165,-0.012962,-0.075076,-0.00046829,-0.052229,-0.0033241,-0.0026101,-0.0058229
533,-0.017603,-0.026527,0.010241,-0.004395,-0.061868,-0.012248,-0.029383,-0.0076078,-0.015104,-0.0026101
534,-0.01796,-0.022244,0.0048863,-0.029026,-0.037237,-0.04152,-0.0029671,-0.0036811,-0.0065368,0.00095961
535,-0.020102,-0.011891,0.009884,-0.050445,-0.051873,-0.08043,0.014882,0.0038154,0.025234,0.0016736
536,-0.021887,-0.018674,0.0066712,-0.029383,-0.053657,-0.063296,0.026662,-0.00011131,0.037014,-0.0022532
537,-0.025099,-0.025456,0.0056003,0.01274,-0.036166,-0.047232,0.019522,-0.004752,0.041298,-0.0061799
538,-0.023672,-0.031168,0.0059572,0.0363,-0.066508,-0.057227,0.020593,-0.012605,0.030588,-0.0061799
539,-0.014747,-0.033667,0.009527,0.037371,-0.061154,-0.0018962,0.02452,-0.011891,0.0052433,-0.0086787
540,-0.012962,-0.049731,0.0048863,0.0034584,-0.065081,0.020236,0.030231,-0.0015392,-0.012605,-0.0086787
541,-0.017246,-0.044733,-0.010821,-0.015461,-0.10506,0.0063142,0.030945,-0.0079647,-0.024386,0.0020305
542,-0.019745,-0.024386,-0.0093926,-0.018674,-0.092925,0.047366,0.035586,-0.010464,-0.044376,0.012383
543,-0.021173,-0.015104,0.0038154,-0.014033,-0.11042,0.02809,0.0363,0.0023875,-0.065438,-0.0022532
544,-0.018674,-0.0068938,0.010241,0.00095961,-0.25499,-0.022244,0.033087,0.0045293,-0.049374,-0.018674
545,-0.021887,-0.00046829,0.0077421,0.023449,-0.42491,-0.03331,0.024877,0.0023875,-0.048303,-0.03331
546,-0.031882,-0.013319,0.0041724,0.015596,-0.14076,-0.026527,0.0034584,-0.004752,-0.049731,-0.063653
547,-0.032239,-0.031168,-0.0026101,-0.0079647,0.35115,0.0027445,-0.012962,0.0016736,-0.058655,-0.09578
548,-0.027955,-0.035809,-0.0086787,0.014168,0.39542,0.0031015,-0.01796,0.0013166,-0.053657,-0.095423
549,-0.02617,-0.031525,0.014525,0.052364,0.23763,0.0056003,-0.0029671,-0.0018962,-0.0065368,-0.069721
550,-0.017246,-0.024743,0.020593,0.052364,0.14589,0.018094,0.011669,0.00060264,0.0041724,-0.054014
551,-0.024029,-0.035095,-0.0022532,0.018451,0.083421,0.02452,0.022378,-0.00082526,-0.020102,-0.037594
552,-0.032239,-0.047589,-0.00011131,0.008813,0.08699,0.034515,0.030945,0.0052433,-0.031168,-0.018674
553,-0.031525,-0.04509,-0.00082526,-0.00082526,0.052007,0.02809,0.042726,0.0023875,-0.022958,-0.0083217
554,-0.030811,-0.0533,-0.010821,-0.038664,0.0066712,0.016309,0.056291,-0.004038,-0.0093926,-0.0036811
555,-0.032596,-0.052943,-0.030097,-0.03688,-0.011891,0.0027445,0.046295,-0.0097496,-0.004395,-0.0036811
556,-0.036523,-0.044019,-0.019745,-0.0083217,-0.016532,-0.031525,-0.00046829,-0.0090357,0.0034584,-0.0068938
557,-0.03331,-0.033667,-0.0026101,0.020236,-0.017603,-0.073648,-0.037594,-0.015461,-0.0033241,-0.0068938
558,-0.02974,-0.030097,0.027376,0.029874,-0.028669,-0.10756,-0.024386,-0.01439,-0.024743,-0.0036811
559,-0.030097,-0.027955,0.05165,0.026305,-0.046518,-0.099707,-0.004395,-0.0054659,-0.027241,0.00917
560,-0.029383,-0.022244,0.034872,0.020593,-0.071863,-0.0018962,0.00060264,-0.0072508,-0.02617,0.0041724
561,-0.026527,-0.017603,0.027376,0.033444,-0.096851,0.076281,-0.0033241,-0.0072508,-0.031168,-0.0086787
562,-0.032953,-0.019388,-0.020102,0.045224,-0.066151,0.063073,-0.0079647,-0.0079647,-0.02617,-0.024029
563,-0.030097,-0.020459,-0.1047,0.0084561,0.0013166,0.026662,-0.02153,-0.0018962,-0.012962,-0.034381
564,-0.031525,-0.021173,-0.076147,-0.030097,-0.012605,-0.0076078,-0.058655,-0.0054659,-0.0026101,-0.035809
565,-0.029383,-0.012605,-0.031882,-0.040449,-0.10649,-0.024029,-0.086142,-0.0068938,-0.010464,-0.032239
566,-0.027955,-0.010107,-0.004395,-0.020459,-0.11827,-0.052586,-0.044376,-0.0065368,-0.022601,-0.032239
567,-0.033667,-0.011534,0.038442,0.019522,0.024163,0.0034584,-0.004395,-0.0090357,-0.032953,-0.02974
568,-0.035809,-0.019031,0.019879,0.016309,0.026305,0.12126,0.013454,-0.0076078,-0.024029,-0.024743
569,-0.039021,-0.024743,-0.013319,-0.0068938,-0.058655,0.070213,0.019522,-0.0015392,-0.0076078,-0.020816
570,-0.035452,-0.024743,-0.028669,0.0013166,-0.017246,-0.042234,0.018451,-0.00046829,0.013811,-0.015818
571,-0.024743,-0.024743,-0.052586,-0.0018962,0.095558,-0.067222,0.018094,-0.0015392,0.026662,-0.0079647
572,-0.023672,-0.027955,-0.054371,-0.0086787,0.083064,-0.072934,0.014525,-0.004752,0.0056003,-0.004038
573,-0.025456,-0.02617,-0.016175,-0.011534,0.04451,-0.019031,0.014525,-0.0029671,0.0070282,-0.0065368
574,-0.031882,-0.021887,0.0023875,-0.036166,0.067,0.0077421,0.017737,0.0052433,0.023806,-0.0079647
575,-0.034024,-0.013319,0.00917,-0.020816,0.034515,-0.014747,0.018094,0.0031015,-0.004038,-0.0061799
576,-0.022601,-0.015104,0.0027445,0.07164,0.012026,0.037371,0.020236,-0.0018962,-0.030454,-0.0036811
577,-0.019388,-0.021887,-0.030811,-0.0026101,0.0038154,0.068428,0.024163,-0.00011131,-0.014747,-0.0079647
578,-0.027241,-0.028312,-0.04152,-0.03688,-0.12148,0.054149,0.02452,0.0059572,-0.010107,-0.016532
579,-0.026527,-0.029383,-0.032596,-0.044376,-0.098636,0.03273,0.02452,0.0056003,-0.049731,-0.030097
580,-0.030811,-0.021887,-0.016889,-0.082215,0.0363,0.023449,0.030945,0.0080991,-0.10078,-0.039021
581,-0.030811,-0.022601,0.0023875,-0.017246,0.05986,0.021307,0.033444,0.0070282,-0.077575,-0.039378
582,-0.022601,-0.026884,-0.0018962,0.09056,-0.0086787,0.013811,0.027019,0.011312,-0.052943,-0.038308
583,-0.026884,-0.024386,-0.0054659,0.1052,-0.15504,-0.0015392,0.011669,0.0084561,-0.037951,-0.034381
584,-0.027241,-0.019031,-0.016175,0.029161,-0.44312,-0.0097496,-0.010107,-0.0011822,-0.037237,-0.024386
585,-0.03331,-0.017603,-0.027598,0.053792,-0.50737,-0.0051089,-0.023672,-0.0079647,-0.049017,-0.016175
586,-0.01796,-0.024029,-0.029026,0.090917,0.21157,-0.0022532,-0.028312,-0.014033,-0.051516,-0.016532
587,-0.0076078,-0.021887,-0.0061799,0.032373,0.30867,-0.025813,-0.022244,-0.010821,-0.042234,-0.018317
588,-0.019388,-0.024029,-0.0061799,0.014168,-0.032239,-0.063296,-0.0054659,-0.0093926,-0.019745,-0.02617
589,-0.01439,-0.025813,0.0070282,0.02095,0.25441,-0.071863,0.0052433,-0.012248,0.0073851,-0.035095
590,-0.0079647,-0.026884,0.028804,0.01274,0.37971,-0.037237,0.012383,-0.0068938,0.00095961,-0.04152
591,-0.019388,-0.026884,0.044153,0.00917,0.20301,0.014525,0.010241,-0.0083217,-0.030097,-0.041163
592,-0.032596,-0.025813,0.049508,0.017737,0.0070282,0.047723,0.009527,-0.010107,-0.037594,-0.03331
593,-0.049374,-0.023315,0.042012,-0.0061799,-0.0015392,0.012026,0.016309,-0.0097496,-0.040449,-0.026884
594,-0.070078,-0.023315,-0.0065368,-0.051873,0.052364,0.019165,0.019165,-0.0058229,-0.044733,-0.020459
595,-0.040092,-0.027241,-0.052586,-0.091497,-0.044019,0.0077421,0.023806,-0.0090357,-0.035095,-0.018674
596,-0.015818,-0.029383,-0.060797,-0.077575,-0.68443,-0.037594,0.030231,-0.010107,-0.020102,-0.017603
597,0.0077421,-0.032596,-0.030454,-0.051873,-1.8849,-0.027241,0.028804,-0.0086787,-0.0026101,-0.018674
598,0.022021,-0.029026,-0.004752,0.009527,-0.92289,-0.040806,0.033801,-0.0033241,0.015953,-0.014747
599,0.0052433,-0.024386,0.021307,0.069499,0.83449,-0.072934,0.041655,-0.0090357,0.01738,-0.016175
600,-0.016889,-0.021887,0.015239,0.017023,0.99049,-0.06865,0.043796,-0.010107,0.026305,-0.015104
601,-0.025456,-0.022958,-0.015461,-0.044376,0.97586,0.0038154,0.012026,-0.0058229,0.057005,-0.010821
602,-0.017246,-0.025456,-0.015818,-0.019031,0.66386,0.090203,-0.033667,-0.0068938,0.050222,-0.011534
603,-0.028312,-0.027241,-0.029383,0.0063142,0.37257,0.069499,-0.048303,-0.0090357,0.0077421,-0.012248
604,-0.031168,-0.026527,-0.019031,-0.036166,0.22764,-0.017603,-0.03331,0.00095961,-0.022958,-0.012605
605,-0.027598,-0.029026,-0.03688,0.0048863,0.20908,-0.015818,-0.014747,0.014882,-0.027598,-0.0076078
606,-0.022601,-0.029026,-0.039735,0.056648,0.1466,0.016309,-0.018317,0.0066712,-0.022601,-0.0086787
607,-0.028312,-0.029383,-0.038308,0.074853,0.038442,-0.050088,-0.044376,-0.0051089,-0.025813,-0.011891
608,-0.027955,-0.030097,-0.036166,0.018808,-0.023672,-0.11506,-0.034024,-0.011891,-0.030811,-0.011891
609,-0.026884,-0.024743,-0.018674,-0.063653,-0.096851,-0.11863,0.00917,-0.011178,-0.023672,-0.0090357
610,-0.031882,-0.01796,0.01274,0.0080991,-0.10363,-0.084714,0.0070282,-0.016889,-0.017246,-0.0086787
611,-0.018674,-0.021173,0.033087,0.093773,-0.11006,0.069499,-0.041163,-0.02153,-0.040449,-0.016889
612,-0.011178,-0.023315,0.048437,0.059503,-0.11827,0.15517,-0.059726,-0.014033,-0.037594,-0.021887
613,-0.018317,-0.027241,0.024163,-0.025456,-0.10578,0.10056,-0.03331,-0.0015392,-0.031168,-0.023672
614,-0.024029,-0.030454,-0.041877,-0.1379,-0.1172,0.05986,-0.0051089,0.0027445,-0.034738,-0.029383
615,-0.030454,-0.029383,-0.065438,-0.12755,-0.19645,-0.012605,0.017737,-0.004752,-0.031168,-0.036523
616,-0.030097,-0.023672,-0.050802,0.012026,-0.24214,0.0084561,0.026305,0.0031015,-0.020816,-0.038308
617,-0.024743,-0.025456,-0.017603,0.18694,-0.16075,0.03273,0.03273,0.0034584,-0.0093926,-0.041163
618,-0.030811,-0.030097,0.016666,0.14839,-0.07222,0.033444,0.029518,-0.00046829,-0.0026101,-0.037237
619,-0.027241,-0.027241,0.020593,0.049508,-0.11292,0.014525,0.030945,-0.0015392,-0.0058229,-0.033667
620,-0.020459,-0.021173,0.02452,0.037728,-0.27998,0.0066712,0.033087,-0.0015392,-0.020102,-0.028669
621,-0.02617,-0.02153,0.028804,-0.0083217,-0.40635,0.010241,0.031659,0.0027445,-0.028312,-0.021173
622,-0.020459,-0.025456,0.035586,-0.055442,-0.20002,0.018451,0.027376,0.0080991,-0.027955,-0.010107
623,-0.03331,-0.020102,0.034515,-0.086499,0.1666,0.045938,0.012383,0.0041724,-0.022601,-0.0054659
624,-0.062939,-0.016532,0.018808,-0.046161,0.18659,0.054149,0.0034584,0.0013166,-0.023315,-0.01796
625,-0.037594,-0.025456,-0.0054659,-0.004038,0.071997,0.013811,0.0059572,0.0016736,-0.065438,-0.035452
626,-0.004752,-0.03331,-0.024386,-0.00082526,0.065572,-0.025456,0.010241,0.0038154,-0.06401,-0.024029
627,0.026305,-0.038664,-0.022244,0.029518,-0.017603,-0.046518,0.022378,0.0045293,-0.046518,-0.023315
628,0.025234,-0.035452,-0.032953,-0.024029,-0.012962,-0.066151,0.022735,0.0045293,-0.040449,-0.027598
629,0.014168,-0.034024,-0.014747,-0.078289,-0.004038,-0.06865,0.022735,-0.0036811,-0.031882,-0.029383
630,-0.013676,-0.031168,-0.0018962,-0.099707,-0.029026,-0.035452,0.028447,-0.0093926,-0.0029671,-0.029026
631,-0.017603,-0.025099,-0.00011131,-0.057584,-0.048303,0.0027445,0.032373,-0.0086787,0.021307,-0.029026
632,-0.024386,-0.029383,0.0016736,0.036657,-0.016532,0.00060264,0.023806,-0.0079647,-0.0015392,-0.020816
633,-0.032953,-0.020816,0.013454,0.098413,-0.059012,-0.0033241,0.014168,-0.010464,-0.04509,-0.015818
634,-0.030811,-0.010821,0.027733,0.072354,-0.16503,-0.0058229,-0.0022532,-0.016175,-0.065795,-0.026527
635,-0.032596,-0.011891,0.02809,0.02452,-0.044019,-0.077932,-0.024386,-0.020459,-0.070078,-0.027598
636,-0.031525,-0.022244,0.020236,0.034158,0.056291,-0.07222,-0.039021,-0.016175,-0.043662,-0.014033
637,-0.03331,-0.030811,-0.017603,0.025948,0.037728,0.067714,-0.036523,-0.0086787,-0.01796,-0.01439
638,-0.038664,-0.026527,-0.0093926,0.020593,-0.031525,0.1027,-0.02974,-0.004038,-0.0054659,-0.022244
639,-0.038664,-0.023315,0.019879,0.020236,-0.17396,-0.017246,-0.015461,0.0073851,-0.0093926,-0.039021
640,-0.036523,-0.026884,0.015596,0.019522,-0.12719,-0.034024,-0.0015392,0.010598,-0.00011131,-0.03688
641,-0.035452,-0.030097,0.016309,0.012026,-0.26641,-0.004752,0.010241,0.0066712,0.019165,-0.020102
642,-0.044733,-0.025099,-0.0029671,0.00095961,-0.46632,-0.011891,0.010598,0.0013166,0.030945,-0.016175
643,-0.047232,-0.024743,0.009527,-0.012605,-0.63088,-0.028312,0.0080991,-0.00082526,0.028447,-0.016175
644,-0.047232,-0.02617,-0.018674,-0.029383,-0.021887,-0.016532,0.009527,-0.0022532,0.012383,-0.0097496
645,-0.048303,-0.029026,-0.073648,-0.042948,0.9016,-0.0026101,0.010955,-0.0058229,-0.0093926,-0.004752
646,-0.03331,-0.027598,-0.029383,-0.077932,0.6096,-0.0065368,0.011669,-0.004752,-0.034381,-0.0054659
647,-0.023315,-0.028669,-0.031168,-0.10827,0.2537,-0.0011822,0.013097,-0.0054659,-0.047946,-0.0076078
648,-0.025099,-0.032596,-0.044733,-0.11684,0.25513,0.0066712,0.013097,-0.0033241,-0.051516,-0.012248
649,-0.022958,-0.023315,-0.021887,-0.039735,0.21015,0.023449,0.01274,-0.0015392,-0.068293,-0.019388
650,-0.035809,-0.022244,-0.014747,0.054863,0.085205,0.034872,0.017023,0.0027445,-0.075433,-0.02153
651,-0.029026,-0.032239,-0.0097496,0.050936,0.0066712,0.008813,0.027019,0.0063142,-0.027955,-0.019388
652,-0.027598,-0.029383,0.0041724,0.027733,0.064858,-0.0093926,0.033801,-0.010821,0.009527,-0.015818
653,-0.027598,-0.024029,0.019165,0.057718,0.067,0.0020305,0.046295,-0.0083217,-0.0065368,-0.016889
654,-0.026527,-0.024743,0.020593,0.046652,0.11698,0.048437,0.030945,-0.004752,-0.044733,-0.016889
655,-0.040092,-0.025456,0.013811,-0.017246,0.045581,0.042726,-0.00046829,-0.0022532,-0.026527,-0.014033
656,-0.052229,-0.027598,0.0059572,0.02452,-0.2118,-0.044376,-0.011534,-0.0054659,0.015596,-0.016889
657,-0.085071,-0.030097,-0.016532,0.041298,-0.39528,-0.057227,-0.051516,-0.0068938,0.037014,-0.028669
658,-0.081144,-0.030097,-0.016889,0.035229,-0.14326,0.0023875,-0.083286,-0.0018962,0.037014,-0.023672
659,-0.069007,-0.024029,-0.024386,0.12376,-0.38743,-0.10006,-0.056156,-0.004038,0.020236,-0.019031
660,-0.068293,-0.021173,-0.030097,0.13411,-0.5345,-0.31853,-0.014033,-0.0076078,-0.00046829,-0.018317
661,-0.014033,-0.023315,-0.030097,0.083778,0.28226,-0.11006,0.0073851,-0.004752,-0.0029671,-0.016532
662,0.015596,-0.020459,-0.048303,0.02452,0.66886,0.23906,0.017737,-0.004752,0.018094,-0.0072508
663,0.060574,-0.023315,-0.015104,-0.026884,0.46146,0.12947,0.009884,-0.020459,0.031659,-0.0051089
